"wavelength","nadir","45","70","-70","-45"
319,31.5408967571235,30.7476524794773,29.8411532477544,28.5620285624749,28.0499466568405
320,36.0212645597711,35.0632050852172,33.9408835241435,32.7243601016002,32.0701239396992
321,40.2016411001813,39.1395822085703,37.890532957258,36.6223300411224,35.8239291527026
322,44.0933743772304,42.974998858677,41.6906244751406,40.2595896672507,39.3586933018131
323,47.7706081474193,46.5597257581483,45.1798819656459,43.6135175908074,42.6047343478962
324,51.4787723392284,49.9297890968601,48.4342561821219,46.7341556844649,45.5860094794471
325,54.8480921580053,53.1508266910893,51.5485296405516,49.7094535057896,48.5447029131566
326,58.0820619487487,56.3067414035243,54.5778807482618,52.6312155495426,51.3780455753081
327,61.3482964931751,59.3331937996375,57.5495213899515,55.5338559666814,54.1211048765209
328,64.3436850143654,62.1554946881844,60.3265681214125,58.2067694948259,56.6203531245255
329,66.6661995261091,64.5394756339403,62.7167867038367,60.4992794596621,58.9268594296522
330,68.4394967042064,66.3256794925537,64.4524767953271,62.2806242332453,60.6339004485505
331,69.9152799733079,67.7717080583959,65.871257103262,63.6846506153083,61.9298922156622
332,71.4331970493593,69.27228246854,67.3201640792914,65.0075550203719,63.5079782672804
333,73.4835471766152,71.2426083860364,69.2529752880257,66.7766680779435,65.2436617513076
334,76.0461684371739,73.8108055339137,71.8657051957248,69.1343181868099,67.5229684333886
335,78.8872319612161,76.6598692457024,74.5037389359708,71.6435645013415,70.0067458016709
336,81.476140585772,79.2430190060234,76.9257012075361,73.9492655051779,72.3090775490823
337,83.4494628347673,81.1492553862749,78.879523792601,75.7312593259516,74.1121567676724
338,84.829356951825,82.4438865036075,80.2096946151938,76.9964471527733,75.3984216415594
339,85.7656134202985,83.2103963422068,81.0690148153176,77.8403153693237,76.2084399942335
340,86.3567011298796,83.686996542531,81.5014365293154,78.3633795928224,76.7023251034097
341,86.7105912229306,84.0739664996645,81.8504761659458,78.7337095388999,77.070619817612
342,87.155562836405,84.5173733491881,82.323711378844,79.1677350029425,77.4705058714527
343,87.9644227023754,85.2778954515799,83.090977900401,79.8811238306783,78.1392627941304
344,89.1653740417215,86.5266910966435,84.2132723990623,80.9423166701261,79.1756252724544
345,90.5395068530853,87.8477627357599,85.5686643436553,82.1661538916988,80.3851523436403
346,91.8357900545465,89.0951560980135,86.8881318290754,83.3423961068639,81.5313382158152
347,92.8872915746267,90.143977423925,87.8632348668703,84.3236662497377,82.4498078681177
348,93.856482346775,91.1309568639143,88.7233723640813,85.2461229961895,83.3128331248828
349,94.9264924373895,92.2995850110019,89.8722797583266,86.3258284595495,84.3525127568102
350,96.5313650356963,93.8658199752282,91.4133013752529,87.7540222129254,85.7745921098616
351,98.4835126470246,95.6690737724713,93.1786204781288,89.3854038879886,87.3725043704323
352,100.126714860694,97.2776733115252,94.7431350720422,90.832389455852,88.7857486423134
353,101.186257693285,98.2570460170894,95.6664304742922,91.7048583475447,89.6622891577233
354,101.430118421749,98.45695884172,95.83320974524,91.8493376687098,89.8469601508362
355,101.101539321458,98.1110165579114,95.4785108436226,91.5464466471842,89.5599898000261
356,100.523756477039,97.5238542936089,94.8774476077958,91.04372438972,89.0172137193892
357,100.034677290755,97.0053028600865,94.3453307506305,90.6209390566676,88.5897711996391
358,99.9290320344433,96.9035390461719,94.2460821917544,90.5522626057143,88.5283489546877
359,100.615433658788,97.505751142784,94.7734999830294,91.1387634844303,89.0453738729852
360,102.253661348326,99.076160621485,96.3077649626425,92.6033934328993,90.4427574534483
361,104.72226047254,101.524720683428,98.7588872083148,94.8553363514244,92.646979550032
362,107.811599383498,104.503926631255,101.668927338086,97.5762921922789,95.3394785153828
363,111.047918732024,107.646660298319,104.747223407399,100.443265038057,98.1967131578778
364,114.127497680164,110.627004350857,107.705551818999,103.19789684114,100.937457744538
365,116.894032690405,113.341733825413,110.347619196778,105.696983284647,103.389125843372
366,119.206594099693,115.624606704181,112.514446453045,107.809208079093,105.457812744579
367,120.939353442125,117.345525406964,114.143119199789,109.415594802825,107.024638574762
368,122.045088509025,118.444364831565,115.186192244161,110.455504928709,108.029650216661
369,122.505269956856,118.896440953234,115.612469418453,110.885522881349,108.430291352907
370,122.277486326688,118.680384248276,115.408302033528,110.680406870854,108.202169241007
371,121.631503323912,118.033934423143,114.808589833134,110.079750661693,107.58557750825
372,121.050287065366,117.431222602545,114.247313835613,109.52346719084,107.021016112591
373,121.010794765324,117.34850311517,114.202816621821,109.453353868945,106.950874750713
374,121.65303053354,117.9313133605,114.763926430084,109.999971373419,107.507123644811
375,122.494861398951,118.715296467607,115.501618157567,110.719225006601,108.248586596721
376,122.986982420274,119.182049082246,115.928376338218,111.104974687376,108.67220494625
377,122.631610516683,118.866960701328,115.59733529156,110.816829651702,108.371906136454
378,121.554694465163,117.860050884284,114.49210071376,109.885507643619,107.420764514239
379,120.018076959275,116.392237897233,113.065944444531,108.488761603599,106.039560645373
380,118.242316702191,114.681420346758,111.456719341954,106.831255404883,104.450527736206
381,116.501627125659,112.992598309071,109.885305528412,105.212933633717,102.897808442517
382,115.096457686712,111.643731295661,108.663701352336,104.002480278244,101.642828874281
383,114.333702030117,110.893580513281,108.010695922661,103.345655417769,100.946442816417
384,114.346814990341,110.891604532418,108.034474512435,103.367848221422,100.94486493576
385,115.022516996974,111.534938292686,108.626003618726,103.96892526849,101.532996117211
386,116.217339919401,112.691836077396,109.715962514595,105.02294009656,102.578116763303
387,117.771713946385,114.212364190035,111.172287542368,106.390351819646,103.934805187958
388,119.441884531311,115.851496359313,112.758350247799,107.860543558023,105.391229123895
389,120.98030324908,117.333460828286,114.191827636548,109.199746991246,106.708381430591
390,122.101180977922,118.406073110908,115.226737591995,110.195405920509,107.673627428239
391,122.961168308447,119.231580364761,116.043467335671,110.992519413114,108.437332650419
392,124.098545908792,120.314693394108,117.127279338459,112.033325068108,109.437985884422
393,126.000866636999,122.170005338882,118.92853032348,113.768460237504,111.122422342504
394,129.094164914161,125.195689126531,121.869998384073,116.554258021316,113.842172901513
395,133.571091681966,129.550921312493,126.102221489346,120.553456493316,117.753120363857
396,139.540337650121,135.373850531089,131.739720446475,125.905020754158,122.987122449767
397,146.97692818393,142.693376907051,138.804712824719,132.654091307639,129.58500926393
398,155.436667281743,150.980827348244,146.802555913159,140.320429391231,137.07789359303
399,164.218850743636,159.516401427659,155.04258997592,148.24103068661,144.819571045681
400,172.567472705329,167.587826359326,162.899595845767,155.763362297784,152.156599824835
401,179.984445335919,174.733662266774,169.887295629437,162.43327529359,158.682275202366
402,186.164886610078,180.669171880764,175.699566644282,167.972078644348,164.116056202657
403,190.849569037585,185.136720172372,180.060500070217,172.108245622298,168.173378555158
404,193.900535943512,188.092577176023,182.913868900771,174.792151713968,170.809721247183
405,195.781501331663,189.973971849476,184.708297225837,176.462311585394,172.455052719857
406,197.068445612323,191.28216123324,185.944712671986,177.622223863321,173.598897984202
407,198.284468208014,192.474468266047,187.107601003738,178.727312414452,174.684097342445
408,199.613288318669,193.741712919041,188.379672192083,179.941381026769,175.870303028041
409,201.104166357517,195.174761130958,189.825523080825,181.318859085926,177.202056874525
410,202.824583209487,196.856341196596,191.502474655656,182.907505906006,178.729631027413
411,204.71346337932,198.702186906963,193.319364803799,184.619223086495,180.37651293907
412,206.54497148901,200.469519113446,195.029931398022,186.236954655092,181.936552721365
413,208.035719327575,201.909585577493,196.409220731311,187.538819301467,183.198939890635
414,209.00970097505,202.857741253199,197.307743666777,188.381246595424,184.025794927583
415,209.526619018298,203.349601179762,197.770408648654,188.807125112565,184.452887684278
416,209.683148216139,203.44994481132,197.870804557539,188.886497955122,184.541277037895
417,209.502084751769,203.229195859594,197.684497374873,188.69158543219,184.354909118815
418,209.081077045488,202.79527728518,197.300188520279,188.309072752929,183.97691235463
419,208.542137120457,202.271400809385,196.811934842552,187.831542588516,183.49823595763
420,208.007871558997,201.774297868928,196.307726711026,187.346534747459,183.005043576607
421,207.454285136412,201.263199434138,195.751660108796,186.819450343851,182.467434111329
422,206.688128131315,200.535600121356,194.957927419836,186.090266945,181.736320215556
423,205.492452180936,199.381866623101,193.78552961018,184.99344390785,180.657368668343
424,203.770321791636,197.710121808716,192.168300726942,183.459264136635,179.166301358255
425,201.755870173455,195.734872779028,190.299849564577,181.667329294778,177.433150307392
426,199.69596225801,193.71981965875,188.391056517851,179.837271642635,175.665568351241
427,197.857901534253,191.924203790146,186.703700951713,178.187504090378,174.062187372642
428,196.474180207513,190.574471146373,185.449856620913,176.927470947511,172.847807744933
429,195.764469616884,189.882430248209,184.820033234416,176.262613596634,172.197797590117
430,195.943067706516,190.054651544992,185.00017837146,176.39349457744,172.312060456916
431,197.073238039427,191.150756143439,186.024629394281,177.382538253454,173.255227027122
432,199.049224578165,193.065917035919,187.816632654421,179.137581276646,174.946345989004
433,201.756294091655,195.686574830344,190.322365624208,181.558248683624,177.2967589347
434,205.029241564058,198.852014233617,193.414483223213,184.497080295198,180.167182912657
435,208.547423239688,202.279754433677,196.779967219,187.671533107771,183.273098165459
436,211.991593449779,205.633636917614,200.070856574345,190.77499080379,186.304102065374
437,215.07306030838,208.601692753383,202.984211686099,193.535760861501,188.985965465594
438,217.794322713685,211.246025367973,205.547835629902,195.969584957314,191.342178732456
439,220.330906756361,213.719699155263,207.928522056926,198.233476060208,193.542558663583
440,222.86462368019,216.180725196694,210.310402217997,200.483636268435,195.755663565536
441,225.487355152798,218.728635941389,212.793205593465,202.814700186817,198.071898218673
442,228.210062329011,221.385412245629,215.379550766823,205.245713644856,200.485715318848
443,231.045407435088,224.168269957796,218.066096736723,207.791079358392,202.985680208979
444,234.005667768031,227.061638481346,220.825052896908,210.436926037158,205.543259853781
445,236.963597975525,229.945360175955,223.565527356561,213.079189790829,208.075378286183
446,239.755198035764,232.678468162507,226.191757010664,215.595861491469,210.488107364203
447,242.298532340392,235.130415458463,228.603835237331,217.872996320648,212.69297818586
448,244.548733114654,237.267663064252,230.752489070739,219.87172721082,214.652346716487
449,246.481830563273,239.109430845582,232.615983219351,221.594018960255,216.35621058806
450,248.104861311769,240.674988849108,234.173083265672,223.042096206962,217.794786143992
451,249.426952599717,241.963169369252,235.391606039953,224.211833999667,218.955825270833
452,250.391509142136,242.945105907176,236.280170086442,225.090501941699,219.82373983611
453,251.013199637695,243.589962437386,236.871801710256,225.664758687397,220.382705605662
454,251.32028385328,243.907799319316,237.208318783121,225.953726421473,220.650988357746
455,251.474381167917,244.054825962425,237.413992183346,226.092540373129,220.768679380092
456,251.670431683082,244.21988576122,237.616299760737,226.242240612955,220.903072681589
457,252.06285661213,244.571653537413,237.956849799893,226.546771423571,221.203558069671
458,252.54734412295,245.064011255421,238.393311603925,226.968009016532,221.628847774985
459,252.997435830213,245.521065618306,238.792935480407,227.35782626434,222.022448929304
460,253.241868231343,245.766724807745,239.010613992339,227.567844679952,222.227662778066
461,253.192594551537,245.713693238115,238.969932911613,227.520346193787,222.164973073731
462,252.886776338909,245.408278598942,238.69059531068,227.243928769151,221.87099277164
463,252.371916021849,244.907822794093,238.199726886324,226.77597094673,221.391925868329
464,251.701364201619,244.270073982295,237.563407393988,226.16044458362,220.777882880652
465,250.95203046304,243.554416893498,236.854172770124,225.467882282702,220.094711488129
466,250.206756004946,242.820648308911,236.150694500342,224.775504036042,219.412221628431
467,249.546231354004,242.12922927412,235.529370120283,224.158459151609,218.798656772547
468,249.024633116514,241.548810019612,235.038563451605,223.666369125914,218.302948674187
469,248.678285509686,241.153554729042,234.707762617367,223.331667034571,217.961026095201
470,248.542863318666,241.017019501125,234.565859943176,223.18616555698,217.808266758634
471,248.653313133522,241.159275504487,234.623409309142,223.239120802608,217.856837050984
472,248.960232093354,241.510581182371,234.86017039285,223.461911538307,218.079926521875
473,249.410169333505,241.992600837648,235.252956188125,223.8222920646,218.446995044481
474,249.953731381598,242.533252549682,235.770977666225,224.284237009484,218.922123044621
475,250.545097600119,243.0889869121,236.348761984939,224.794476451137,219.412583840326
476,251.134590095752,243.624387234522,236.910950261099,225.294825197219,219.888668695512
477,251.610243638843,244.098962464085,237.379859179253,225.723908061349,220.318304021246
478,251.859093847302,244.39886263556,237.644216179193,225.974243551455,220.585061933365
479,251.746104456408,244.355055881559,237.567482262614,225.903668177502,220.496451071478
480,251.136638346329,243.798263426384,237.013431160967,225.370121850873,219.97254892974
481,249.991607382989,242.678592881474,235.946711687771,224.334643788657,218.980232516483
482,248.433834408498,241.170984583099,234.521944227962,222.952433517049,217.646801336904
483,246.70616410221,239.475255448529,232.91476854071,221.400173398699,216.112824455381
484,244.987312245723,237.787355873276,231.30001839824,219.851633753071,214.599123273823
485,243.460804646397,236.283171447478,229.848345009661,218.465473235103,213.24539021023
486,242.296240473872,235.132099201478,228.708246210426,217.395463687372,212.178929685538
487,241.653247477743,234.495679876287,228.086408926772,216.788130579255,211.588683747722
488,241.537656770182,234.400463481723,227.998239067172,216.665479022709,211.496487724088
489,241.869972921095,234.759344929476,228.325676982276,216.944674535764,211.806364648002
490,242.571894346165,235.48144619357,228.994732837515,217.539452412936,212.418524479969
491,243.524209780529,236.437283283081,229.880496817473,218.336464270073,213.209827548502
492,244.50530865211,237.415470992104,230.786426736572,219.164904638562,214.007598748105
493,245.281429133674,238.194170143693,231.49792159068,219.846634157398,214.632840210024
494,245.649149893085,238.579141766469,231.842505539289,220.222124949766,214.928203308547
495,245.566525963175,238.539745947958,231.804927905807,220.242167929413,214.864664396523
496,245.093604064477,238.105393527633,231.39993369059,219.898047680232,214.460302857267
497,244.294458699118,237.308256222618,230.633334849643,219.184800181676,213.7359142099
498,243.249421394679,236.235938079215,229.600467730405,218.174084474113,212.767207696134
499,242.063645708583,235.02835411167,228.437098750305,217.00986806018,211.681714121451
500,240.880730322224,233.827407444583,227.281021539275,215.838884279183,210.608925626533
501,239.826661324518,232.75803519554,226.252658023073,214.789765975789,209.659056780509
502,238.96561432549,231.904467487903,225.430749733197,213.94771699396,208.859206659825
503,238.393912850634,231.344955265062,224.887916044911,213.391562180236,208.325897456284
504,238.164369668646,231.140342750628,224.680988936802,213.182283622295,208.119910479016
505,238.233684953521,231.233117584605,224.759454353387,213.259541986681,208.166320104871
506,238.503739204175,231.516494565065,225.028109181691,213.512490811183,208.360541442257
507,238.849280497288,231.882582078407,225.39038575156,213.829654272713,208.653596157766
508,239.13693331516,232.199364225828,225.718612150303,214.087723025004,208.931278815089
509,239.219109633054,232.309283974842,225.852185432882,214.150859201466,209.039029836882
510,238.946597801014,232.053670435659,225.62903405515,213.882723311537,208.820458051171
511,238.203522218743,231.348269200873,224.96186452093,213.21265774669,208.18997113253
512,237.11547509079,230.311437142674,223.966979036212,212.248834772367,207.254738418441
513,235.847341894333,229.09569043416,222.795005076868,211.129576522707,206.154427948628
514,234.553030988316,227.853545629963,221.596353524765,209.992066521601,205.028294783001
515,233.394678571945,226.737522273611,220.51973849961,208.9645686057,204.01235876483
516,232.521067471262,225.900141317421,219.713074368771,208.171142403872,203.241114849511
517,232.080506593875,225.490790201335,219.321261454924,207.733661767484,202.846387037371
518,232.125730728906,225.558305403048,219.39263359808,207.731864618086,202.87457876937
519,232.595891474452,226.032025576643,219.860762091445,208.143358689681,203.270577094097
520,233.430277882718,226.834326733167,220.652530768437,208.861519359485,203.973351524198
521,234.527694589419,227.878876785592,221.685003369896,209.81062191579,204.909231939539
522,235.770899681193,229.052372269805,222.844828106474,210.880240496927,205.965399797576
523,237.018953454503,230.236303718317,224.012782396527,211.984852126825,207.021480144439
524,238.142010518542,231.322785340555,225.079925945467,212.981187686117,207.968215089297
525,239.14640782113,232.300245685384,226.030537754983,213.833354380768,208.797134123242
526,240.06322870731,233.208385175336,226.898521088422,214.597445089968,209.553419785749
527,240.929833864951,234.086815637187,227.717939316136,215.32951117158,210.282183108049
528,241.768409470896,234.951804564668,228.510417537219,216.058372296261,211.004982451311
529,242.579218895926,235.788473906787,229.280985956704,216.776516159365,211.711952672879
530,243.360999486043,236.579778611889,230.033519224722,217.473902548606,212.391042231125
531,244.098928319228,237.295430423283,230.750444796008,218.124232761045,213.015935913187
532,244.688123748119,237.858419905848,231.338525794787,218.643849180951,213.509997188436
533,245.020139408964,238.181439598065,231.687847827739,218.93645145502,213.785497976844
534,245.00479468416,238.187268494378,231.700919795346,218.916838041279,213.765038454777
535,244.683285936498,237.90499870658,231.411194419868,218.616790928592,213.480080537422
536,244.169646608541,237.42744968533,230.930616161088,218.138215617352,213.027341200596
537,243.58213376496,236.847989867268,230.371599303361,217.583489988598,212.503926821433
538,243.003710929756,236.242759767557,229.814039510993,217.028822951368,211.979843697616
539,242.466242193106,235.662104119815,229.289141535678,216.51123998296,211.484520525498
540,241.999653222301,235.154251443506,228.824115662098,216.06455206094,211.044057127905
541,241.619044230582,234.763762729938,228.447279513816,215.753555889793,210.686029840243
542,241.358026104024,234.520467393146,228.191398627983,215.586685238504,210.443945793341
543,241.257801578875,234.450496522356,228.090355179086,215.546795508506,210.352801029052
