"wavelength","nadir","45","70","-70","-45"
319,15.6954613624845,15.0457170481263,14.5989706422626,14.3813257762283,14.1100494039282
320,17.3000534848349,16.5988557229466,16.1167953775501,15.7744910535391,15.4914434329318
321,18.8700890920955,18.172591522373,17.6397288284788,17.2222681366281,16.9086355230562
322,20.4776333790478,19.7164164402323,19.1820689737968,18.6967569050033,18.3908174767026
323,22.1040256441588,21.2736930320314,20.7005253504217,20.1852732266512,19.8583303542042
324,23.7314594696337,22.8316352553321,22.2136238897639,21.6921286101337,21.3210429723519
325,25.3427374321152,24.3624002520148,23.7213976698733,23.1618258449077,22.7875636527997
326,26.9183200612426,25.8921758751715,25.2121280116884,24.6090924345481,24.207078084333
327,28.4417135540767,27.3969226381487,26.6633405380052,26.0244203286603,25.5752757462066
328,29.8903050334622,28.7677922897079,28.0415741152047,27.3676809663885,26.9115312796548
329,31.2342505026919,30.0243950360808,29.2876505332877,28.59014462506,28.11759038733
330,32.4142007649278,31.1481708509001,30.3822418374169,29.6557916910734,29.1347198043357
331,33.4038958509236,32.0483960279652,31.2832532181596,30.5444681783169,29.9958406694955
332,34.1714216565052,32.7912610716541,31.9736007696721,31.2420437047695,30.6641523327897
333,34.6916196914853,33.3372152766775,32.4615234062719,31.7397658586377,31.1443737586555
334,34.9796216284238,33.7217575167825,32.8182718699186,32.0963674065043,31.4951178288168
335,35.3116914282584,34.0652271704586,33.1420111208639,32.4172733877174,31.8046449960424
336,35.7331210209239,34.5037194258141,33.5644174318637,32.8081863310607,32.2095392638308
337,36.3227942162959,35.0601975591458,34.1442672633994,33.3277284536928,32.7600758809337
338,37.0430678492686,35.7140253292329,34.8375137090557,33.9603067517454,33.4067513752903
339,37.8986003586842,36.4383486353203,35.5904719872119,34.6755995465042,34.1160572657747
340,38.7643407193942,37.2359610814852,36.349455181109,35.4372440109985,34.8494851636248
341,39.5598776105512,38.0117464778515,37.0607672394924,36.1767522576847,35.5542666085408
342,40.2307641362779,38.6877246258802,37.6736038509611,36.8168615890397,36.1698469355853
343,40.7318940285343,39.1962208928502,38.148798343318,37.2905879533088,36.6234438903944
344,41.1356897089324,39.5882291201396,38.5291146777809,37.6602807387089,36.9779077530604
345,41.5948739668984,40.0297257233688,38.9610918191166,38.0766551854991,37.378192166996
346,42.262215909319,40.6804480168305,39.5967635460753,38.6906467353202,37.9694242626065
347,43.1843487430179,41.5490838792793,40.4746989587333,39.5483032969597,38.7970879025812
348,44.2337097141847,42.5432292514942,41.4582847688013,40.523525706131,39.7431270471802
349,45.2596036749869,43.5345046082299,42.3882903896955,41.4742283654078,40.6434597653003
350,46.1473584371812,44.4010549477432,43.2299687318114,42.2803559910919,41.4166083618713
351,46.8638972259165,45.0659796001445,43.8961022971575,42.9159469133934,42.0461424664981
352,47.3954410329636,45.5512615132131,44.3515021560649,43.3801557771292,42.5289496373539
353,47.7317749083769,45.8535144287541,44.6498105393636,43.6745815683746,42.8635070542375
354,47.907776348311,46.0081440688426,44.8239916993475,43.8317478618815,43.0373935196618
355,47.9891497296512,46.0771655701163,44.8991727042426,43.9053909984057,43.1031012034912
356,48.0295850644209,46.1234869857696,44.9580061760327,43.9551524780682,43.1428635760488
357,48.1299231544128,46.236960716632,45.086071996286,44.0493320513017,43.240326868451
358,48.4319374283674,46.5520798187773,45.4067183961678,44.3312470671986,43.5018328647636
359,49.0819271222843,47.2075345184679,46.039140886051,44.9321678646627,44.0524747627151
360,50.1824579847878,48.280251778396,47.0824860638782,45.9452796350445,45.042053332997
361,51.6462097578638,49.6762346439047,48.4606188595958,47.2882742143809,46.3967621631579
362,53.3343386063233,51.2926070432496,50.0397489570704,48.8310478563591,47.9213748857625
363,55.1091876951139,52.999243096032,51.6840071342924,50.4469962373947,49.5224921033227
364,56.8485550708271,54.6623361135705,53.2900645662091,52.0320914876083,51.0465685210316
365,58.4410506452187,56.1425727746019,54.7583936971503,53.4768556218278,52.4620780346054
366,59.7758436719379,57.3938612633416,55.9899801037708,54.6812096260353,53.6406373209606
367,60.7683778531312,58.3440115016349,56.9082134991069,55.5708599394798,54.5041101256771
368,61.3787347724709,58.9437284609901,57.4745461719167,56.1153201248274,55.0268459065618
369,61.5713325681123,59.1459413589344,57.6541281767963,56.2883595913693,55.1879912837039
370,61.3587959304425,58.9520316268851,57.4574257728599,56.1062210104901,55.0063542227597
371,60.9702181334043,58.5809524085135,57.0983948725976,55.7697982826911,54.6788395434297
372,60.6954273697026,58.3127012727452,56.848084789139,55.5319581957828,54.4523209698371
373,60.8035483592925,58.4074092644175,56.9580833658531,55.6323974574208,54.5559178742415
374,61.280648525739,58.8535909417008,57.4139017782295,56.0567679687352,54.9760141054443
375,61.9078272233011,59.4430773376502,58.0083791823541,56.6117022499608,55.5232233334545
376,62.4622253124178,59.963903200404,58.53064562387,57.1003432213265,56.0047585228655
377,62.7754978604953,60.2566090884286,58.8221253682506,57.3734229025592,56.2740431965635
378,62.7757068716443,60.2545907004281,58.8167236289939,57.368151905438,56.266223030544
379,62.4007747562981,59.9007408671928,58.4578044796741,57.0299174203539,55.9248021619542
380,61.6337236157286,59.1796349282103,57.7311529311588,56.3331264954249,55.2338583495148
381,60.6704767912109,58.2726180371992,56.822809694166,55.4544134407247,54.3690044641339
382,59.7697213159804,57.4190434647271,55.9778512419979,54.6281177997551,53.5623182934139
383,59.1820818045672,56.8512044436534,55.4334397701926,54.0831781149401,53.0385372940999
384,59.0397054585891,56.6976404213481,55.3104423875632,53.9419622850933,52.9145340250444
385,59.3846946603406,57.0080362294464,55.6413399880754,54.24725868558,53.225201915043
386,60.2557290520573,57.8289386331383,56.4588735374904,55.0463206822191,54.002356766471
387,61.5678242137851,59.0837601215048,57.6804968470327,56.263172490028,55.1692907666177
388,63.0050384959222,60.4659453920045,59.0133308883433,57.5993811693553,56.4466154448022
389,64.2261373563656,61.6437546062356,60.1480821205084,58.7331908178109,57.5327460990249
390,64.9730231232986,62.3655034241367,60.861226341886,59.4207113992444,58.199660142162
391,65.4066778103269,62.7830544872129,61.2923185104324,59.8105622733549,58.5901498596632
392,65.8198367462391,63.175140467903,61.6988702687461,60.1816982393832,58.9635870097609
393,66.5045302590841,63.8201119839664,62.3408031505544,60.798337200037,59.5788332208311
394,67.7406548347464,64.9894189033712,63.4815230237263,61.9132547275058,60.6858456876471
395,69.7983015447339,66.9489345660324,65.3872514627819,63.7790305534217,62.5211950150029
396,72.9454987396996,69.9626351356428,68.3225691690272,66.6464234541681,65.3419313571678
397,77.2099817913255,74.0602074785025,72.3199439429223,70.5432701640419,69.162626605035
398,82.1389141944111,78.8027735953736,76.9476313849458,75.0515763962973,73.5772206937086
399,87.2222559956762,83.6956812579235,81.718630973117,79.7002796908492,78.1321449781363
400,91.9854606721487,88.2786530802861,86.1809526328447,84.051548652124,82.4027804938575
401,96.1479241682446,92.2792419794472,90.0739096516572,87.849132379569,86.136254294497
402,99.4949531192577,95.4888343648475,93.2018291169704,90.908057770752,89.1179340633373
403,101.8278503955,97.7144771853468,95.3837927060363,93.0319306410102,91.178743053297
404,103.236643886303,99.0458936111395,96.7051329783725,94.3039558393319,92.4151283174768
405,104.062459679038,99.8186444957862,97.4827353980218,95.0460944477986,93.1395175165503
406,104.654320879691,100.376005907512,98.0407656303571,95.5875304539346,93.6714022971793
407,105.272365621049,100.971159778736,98.6210252663862,96.1598674976862,94.2444126202538
408,105.983786966879,101.661718210135,99.2865259234914,96.8197200347017,94.898383620362
409,106.830483583533,102.479654808127,100.076840503214,97.599904879377,95.6540677742082
410,107.837269534382,103.442134755315,101.015586966173,98.5186270959329,96.5667092296663
411,108.926273835284,104.477318900768,102.030487929797,99.5062694993781,97.5266224242429
412,109.981441415218,105.480271267025,103.013606719296,100.46055764376,98.4503096332007
413,110.889610023869,106.348652371498,103.859759442926,101.281777652877,99.2562894262957
414,111.599341267162,107.035482866517,104.522474486409,101.924810463275,99.9004042592266
415,112.117621343433,107.546184429165,105.01085422402,102.401349983723,100.379571373521
416,112.453761666597,107.888258150505,105.336202369333,102.709781751753,100.659103470895
417,112.625618552227,108.075081639396,105.514881537972,102.865405906514,100.802177317692
418,112.67144755835,108.134061514757,105.575331461668,102.910375093452,100.839980921795
419,112.632483805719,108.094653506671,105.547755884966,102.873627619849,100.804766341073
420,112.539487604624,107.979160208691,105.454210702943,102.780672216198,100.720060668754
421,112.352955545671,107.761901868385,105.262097054618,102.599246197632,100.550865025523
422,112.004487655158,107.397465577246,104.917571852922,102.273327883507,100.2381112181
423,111.428124239836,106.842003512005,104.368686435995,101.748886745424,99.7248147725354
424,110.620529845109,106.091923801613,103.607413784078,101.023004439255,99.0074189458978
425,109.643569397346,105.185546516432,102.696984080743,100.145977381768,98.1379925564005
426,108.562236611285,104.163246277825,101.697462671126,99.170667235263,97.1712803287429
427,107.48808809722,103.119355311599,100.708155300023,98.1943818796795,96.2054063691257
428,106.656513462153,102.291704905921,99.9431504547131,97.4326329332856,95.4538612948385
429,106.32326087451,101.941718077757,99.6350821329363,97.1203651067488,95.1491023658625
430,106.709360241013,102.295887038005,99.985556300567,97.4610433153154,95.4921110911174
431,107.772068958032,103.315316678209,100.960442989276,98.4189642596922,96.4447314920645
432,109.347550441839,104.839276575362,102.417389419772,99.8486261215006,97.8590231774191
433,111.271375364764,106.706334668198,104.213201709619,101.603839748968,99.582220136805
434,113.380411699666,108.753168608961,106.196393409215,103.535042407428,101.479361662962
435,115.513027936941,110.81426965749,108.205886503861,105.488769320866,103.390674201227
436,117.50771590215,112.724049597438,110.080108276396,107.311376322617,105.173558566141
437,119.260670875535,114.37857935135,111.715634440538,108.904665241934,106.734090735344
438,120.841201433589,115.858910391668,113.183488957449,110.336778713308,108.137193834318
439,122.350944037172,117.28063821464,114.588132254439,111.706922532952,109.47745475406
440,123.885025275338,118.750799403763,116.02355237839,113.107561851734,110.84327763541
441,125.481684069594,120.301636967818,117.527414495989,114.57225749751,112.269037562092
442,127.149771457315,121.926755929491,119.102187084094,116.104140619892,113.76119847753
443,128.897010209101,123.618816380709,120.750150831404,117.705352968911,115.325210185874
444,130.696920620864,125.346379732619,122.443299395059,119.349553555469,116.936264577365
445,132.47865298825,127.046744790884,124.115782777184,120.973451457631,118.530300720322
446,134.168400091117,128.655126867748,125.697977406978,122.511292995225,120.037484991196
447,135.706980642982,130.119871294482,127.12876098846,123.910898742635,121.411839595322
448,137.085306771055,131.434293350294,128.405845021771,125.166580716417,122.646367411248
449,138.305006294559,132.601328024376,129.54176619202,126.282596112319,123.741569205342
450,139.366673535194,133.622538551109,130.538110218199,127.263084518407,124.697010750392
451,140.260341163122,134.485469750759,131.384008017201,128.09120839081,125.502702811889
452,140.969859741089,135.169460971022,132.059248364057,128.745904859325,126.14306327231
453,141.479982575186,135.65478122829,132.544483380788,129.206545363516,126.603334252679
454,141.826556405836,135.975526171587,132.87148426285,129.504731651561,126.915374156884
455,142.120459888316,136.24483713104,133.147091772189,129.752730935327,127.179498501011
456,142.478562866809,136.582167119135,133.484140866164,130.069180613297,127.501489001666
457,142.979752635665,137.068164946864,133.958785554909,130.534109214586,127.946327452515
458,143.552791610068,137.630106992732,134.502199514326,131.074944880149,128.452081755011
459,144.089356965288,138.157382154586,135.009742033594,131.58141898783,128.926941564391
460,144.486270683134,138.544750375219,135.381831516162,131.948894936693,129.27773939021
461,144.702984674385,138.752355623201,135.580473125791,132.141297127262,129.46770231688
462,144.740738686775,138.783967287944,135.608763841939,132.168295117336,129.497684923175
463,144.60193998425,138.644527485205,135.470926707358,132.040684021657,129.36959955442
464,144.319474670637,138.367336719365,135.20287439142,131.791181743529,129.113289601287
465,143.977360563851,138.033269911173,134.883250295005,131.489284152902,128.804611356481
466,143.664502171871,137.727748698264,134.5896442913,131.208002013122,128.521597230244
467,143.455845916619,137.522656648193,134.389847164595,131.009450085124,128.33732355873
468,143.362104968648,137.427576934655,134.304050905246,130.905601179204,128.255476919341
469,143.375527251191,137.43418312603,134.315180707934,130.894013709696,128.261268485816
470,143.488788302589,137.534698548335,134.410349413251,130.972590996057,128.341055577921
471,143.700921831706,137.729513169241,134.590811713521,131.157508096268,128.498196729264
472,144.015823192767,138.025261412328,134.871571499532,131.452377395867,128.749050104741
473,144.437381491384,138.428602166487,135.273192042178,131.839278676199,129.110128368979
474,144.954060287852,138.930253808118,135.774987628982,132.304325350417,129.577103491773
475,145.524489759737,139.490105371756,136.331984505371,132.816182101471,130.105341028302
476,146.10388984494,140.064521804654,136.8952215741,133.348211165905,130.645599126822
477,146.638894720578,140.600751663781,137.408725672915,133.850659053879,131.142011790717
478,147.029734489692,140.996771500859,137.778625031328,134.218815261127,131.502911034792
479,147.161033258288,141.133987366355,137.898302326239,134.3461297423,131.624588428296
480,146.923531420007,140.900217297737,137.666926747182,134.131712986608,131.408909566018
481,146.321235744061,140.302024614521,137.093382187139,133.579490257075,130.860934178668
482,145.457891889162,139.450536082397,136.270555937646,132.785683485443,130.076591581755
483,144.440697633419,138.460470616723,135.31009420346,131.849712397092,129.15495413383
484,143.386410390232,137.450628187767,134.321017633799,130.880561812604,128.203341813976
485,142.433298200914,136.548991757731,133.432273593011,130.008739466095,127.347632997183
486,141.72256802443,135.884798927087,132.775179011561,129.367693687875,126.716241623538
487,141.377065860259,135.56975902064,132.463464291548,129.072408644163,126.420239172881
488,141.401962150872,135.603242484376,132.498147614205,129.119531504918,126.459549138985
489,141.755994798913,135.940292976309,132.835773059109,129.459015908901,126.79023813131
490,142.395183084865,136.533767488138,133.430635723033,130.03891797565,127.359217502102
491,143.213561610745,137.287072122527,134.186105762365,130.764859570043,128.06980512838
492,144.042012557872,138.053230477538,134.953669007575,131.49922887457,128.796022406114
493,144.708663518827,138.683066249295,135.582546334595,132.102531130575,129.395473515902
494,145.08641300038,139.061892961115,135.957754210059,132.467424177975,129.758687511512
495,145.166442328185,139.166144768025,136.058879503027,132.571511631478,129.860173810712
496,144.95924094466,138.987130071483,135.88094645876,132.406263387923,129.680641298305
497,144.483834819804,138.527146697908,135.429009135739,131.973125435528,129.244237999715
498,143.824839919177,137.872929187302,134.785185175823,131.350194576667,128.629064290314
499,143.097277296362,137.150353806805,134.067316038443,130.651100086792,127.945664373246
500,142.415260314912,136.484110371855,133.392332912249,129.988617222363,127.303681618826
501,141.85868457026,135.954267065761,132.841939768551,129.442119447136,126.776841431029
502,141.46692197321,135.58804721819,132.45612141565,129.051422889951,126.39520580493
503,141.276987899626,135.409606503195,132.272436689718,128.858715630582,126.205783058906
504,141.303348811398,135.425880076428,132.305416714092,128.868681619368,126.220515239038
505,141.489910942757,135.589916520543,132.49753412353,129.036938964197,126.378283864454
506,141.766816191821,135.844252647934,132.77720494768,129.302704862667,126.630152415935
507,142.063457438429,136.129711415813,133.072559861948,129.598383799248,126.917328408099
508,142.302239263422,136.371125607581,133.309067202475,129.847153210154,127.165865978865
509,142.401759013149,136.484616538914,133.410744859476,129.965771404115,127.2935636866
510,142.281623883446,136.387266509802,133.302598439111,129.872054645957,127.197850764583
511,141.908553966024,136.043289975593,132.954686734313,129.534274553576,126.867349135293
512,141.314432404871,135.482091082206,132.399382753908,128.990488835244,126.339892994719
513,140.535920255075,134.737853836454,131.673628515014,128.283871998468,125.657647363802
514,139.635386020247,133.870180017088,130.83723892116,127.477675491413,124.881569179328
515,138.77119269333,133.033584207396,130.038813032026,126.710120305182,124.133427714644
516,138.124105240188,132.404730533755,129.445292211893,126.136922869234,123.561273968293
517,137.860767002941,132.146681216551,129.196733623038,125.901785011356,123.337740608676
518,137.985367918627,132.266023839652,129.30065422378,126.010194074374,123.451774033447
519,138.398095797955,132.669171448223,129.674912213206,126.379152950342,123.801516974736
520,138.997653015816,133.261045371044,130.237348468642,126.924339048085,124.329065172017
521,139.697202133919,133.956338796648,130.905525969606,127.56952626645,124.962155380704
522,140.433379211452,134.685607760159,131.613669697321,128.25692299965,125.634747704778
523,141.144968741347,135.380860158525,132.291298267367,128.915175664093,126.281371845994
524,141.783304943743,135.988924074017,132.88436814613,129.492142775177,126.850474983023
525,142.355903952062,136.522973761423,133.406291664253,130.010332350843,127.350105890042
526,142.885997209077,137.014741950397,133.889350032274,130.488907457407,127.816554936732
527,143.395906852862,137.494692508612,134.364383537727,130.951938187642,128.268748319128
528,143.89480372534,137.974940023163,134.841396482904,131.409382415611,128.719883439906
529,144.381967794373,138.453798888271,135.314722767448,131.860488798972,129.168013108227
530,144.856281476556,138.92907703732,135.778176476569,132.304093873501,129.610733784304
531,145.298649700848,139.379048303423,136.209751833072,132.721677611228,130.028058831345
532,145.655549686281,139.744577825477,136.557147300702,133.061481371872,130.357253629305
533,145.869570291135,139.962305701022,136.76463965641,133.267992454375,130.549800221501
534,145.895922856996,139.983001048316,136.788840256108,133.297633837062,130.575351027449
535,145.75781127822,139.833540686736,136.656821955942,133.17112149758,130.452765931171
536,145.501232113856,139.566314484393,136.411571636789,132.930723903016,130.208044441598
537,145.172001624513,139.233302703383,136.090529432576,132.61863121444,129.901838534761
538,144.812278832184,138.878531392014,135.736315566961,132.275287988979,129.57237184226
539,144.460992213913,138.539000410849,135.399089305517,131.939596841164,129.249850299093
540,144.15694188763,138.251444028552,135.118318710078,131.650383333349,128.964204051615
541,143.93495578919,138.047082381357,134.923594227606,131.440944164156,128.745349606959
542,143.820840520982,137.944612305574,134.829522717784,131.332019275613,128.623172495846
543,143.839157032055,137.961001437451,134.848249764444,131.342614790039,128.627553971817
