"wavelength","nadir","45","70","-70","-45"
319,63.6843332029056,62.3710057282864,60.957201241138,62.1606540595367,60.1000915495178
320,72.4472611397563,70.9710542173873,69.4510849138083,70.4959980360839,68.7182632665736
321,80.7195216904191,79.0227948957542,77.4447567363422,78.6148658630322,76.4489138422237
322,88.466836216844,86.5739440548109,84.8904747209019,86.0566914878293,83.7778190783139
323,95.7708854169885,93.5722493781346,91.815516662336,92.9507949651565,90.7365845532914
324,102.592807878793,100.149375262059,98.2791594103225,99.5124218436323,96.9349065503902
325,109.059141066442,106.395411964471,104.365967382089,105.798565234854,102.891129407524
326,115.252040184397,112.431515288337,110.217489851029,111.871081920572,108.755746727921
327,121.254099516599,118.307224191909,116.109867027986,117.73355533501,114.468461379094
328,126.676456130574,123.744678384833,121.427847854658,123.12316999088,119.798985207661
329,131.474541811289,128.372513630346,125.906848504788,127.701027909604,124.347254307728
330,135.00143307418,131.880683912107,129.279384324366,131.175327313143,127.781207933167
331,137.737391196996,134.570797751623,131.909473829849,133.895088244498,130.449458835618
332,140.483025758603,137.349937034964,134.68167366661,136.671841077215,133.19189286965
333,144.269481409755,140.943583040653,138.368324842217,140.383297415717,136.852023298287
334,149.228728930365,145.584461880145,143.209674309775,145.290857281529,141.677467012694
335,154.593143044518,150.837107868429,148.505211294015,150.599821448264,146.8857492299
336,159.483087026607,155.672955222734,153.334291432476,155.397285652013,151.592058156111
337,163.202364452891,159.3057456786,156.934369093345,159.001381391294,155.083549044238
338,165.831910887828,161.77888743539,159.357379743804,161.419155128686,157.422025172689
339,167.532985536192,163.494467267076,160.876808244764,162.934876000973,158.887315761928
340,168.475529567332,164.544524025385,161.772583977185,163.825381985241,159.764306253182
341,169.116787818737,165.248356332086,162.411120838701,164.33733327783,160.40570305197
342,169.916966517009,166.067109343316,163.216392786909,165.103821783905,161.212763685344
343,171.345947577478,167.460532396379,164.627419173866,166.469771575595,162.584369622539
344,173.537917820422,169.575780488527,166.756024930856,168.581597860979,164.64072877275
345,176.05720563851,172.021561831035,169.21282235625,171.28919455095,167.022031132129
346,178.412328919138,174.353335026286,171.552783159161,173.817622329066,169.320995401992
347,180.304667032585,176.283185867446,173.466612065758,175.759393329563,171.25420624268
348,182.077759767815,178.110592326166,175.257227287949,177.591543311607,173.096936334486
349,184.320418162282,180.297502682488,177.400075416844,179.714654543394,175.281902681957
350,187.349935958374,183.270508845969,180.309214313697,182.660709768738,178.191426827522
351,190.851807233725,186.740276920934,183.690002536656,186.123029126807,181.524580563281
352,194.055122122012,189.852590253692,186.72286856532,188.964470025515,184.488546814065
353,195.982163115295,191.714593224481,188.545344777328,190.707245297528,186.285341205181
354,196.262046098407,191.980213252143,188.831204044078,191.061481973484,186.591943739031
355,195.484135209989,191.220983888313,188.11055601906,190.512017843012,185.911937448212
356,194.319303965988,190.10039242158,187.000460662883,189.57993003774,184.831739639082
357,193.322925023298,189.25698686318,186.105404544969,188.652036851825,183.932981193819
358,193.150701699175,189.214968798812,185.972225317368,188.410337915025,183.77534727067
359,194.358884215035,190.465787747915,187.131248343682,189.513441398107,184.9122371488
360,197.424884248204,193.456591560093,190.060315302454,192.502094533608,187.848221819618
361,202.167381744364,198.037130922702,194.582682563591,197.193542202818,192.40781791132
362,207.906206418846,203.556222815899,200.083740513299,202.874362166804,197.916742718705
363,213.951151859792,209.369547183718,205.918015364792,208.820647849518,203.690838805948
364,219.742556098906,214.971490474937,211.536038398113,214.46468263708,209.190953885368
365,224.953324852337,220.062988391048,216.574466465744,219.51700563331,214.136265404481
366,229.309190372299,224.322120692435,220.745834209095,223.716881990004,218.27261977713
367,232.53592881385,227.48189121873,223.784207389506,226.833801224169,221.371185350179
368,234.521194863675,229.44853853243,225.671017316482,228.780141403356,223.322842308292
369,235.234457288201,230.186938037507,226.391989234658,229.510465227096,224.053813064758
370,234.679712160532,229.673838934383,225.872784629797,229.013809415349,223.526494487473
371,233.364054429113,228.402557792884,224.636347629751,227.781559397854,222.230429572174
372,232.226570052081,227.260297978266,223.606973905461,226.68507253861,221.053889787331
373,232.076090661479,227.127877548937,223.528697397296,226.598963824299,220.888847473098
374,233.193206434496,228.321317689757,224.634056345472,227.775328742921,222.002684522565
375,234.703384190524,229.897388378517,226.081261030448,229.316867040261,223.509563368224
376,235.564640410118,230.806097639614,226.912526837112,230.202178518621,224.399133653263
377,234.938558883536,230.198710791962,226.348758519321,229.604047249447,223.852611124091
378,232.967587715408,228.220777967606,224.49365181876,227.654598779076,221.997618302613
379,230.051655867837,225.366899631271,221.72303972314,224.781694055069,219.253525742889
380,226.595317571156,222.054724383741,218.387224346037,221.418287996902,216.043283882827
381,223.186154959315,218.729451042836,215.015693887797,218.075139700275,212.84415357304
382,220.351241816078,215.972529769935,212.226723618584,215.324384742351,210.176238891848
383,218.668274577479,214.365326079729,210.61620879843,213.737616919538,208.558957885177
384,218.45865542036,214.225101104209,210.502993733779,213.622167530597,208.290429523934
385,219.608188566993,215.357783510922,211.669524412263,214.773729283523,209.240315665772
386,221.831534596713,217.51077547463,213.791814663173,216.929433354676,211.229237487593
387,224.76090825229,220.394594171293,216.613054671864,219.792518519154,214.026242997669
388,227.916506331172,223.526910207875,219.66877637496,222.889023239966,217.130739186378
389,230.820383630408,226.362578665642,222.439517722119,225.68726687827,219.954303416749
390,232.93582125957,228.40384210549,224.451587089597,227.702673081897,221.957641893998
391,234.560548527431,229.951816622846,226.002844895528,229.244721553726,223.429899164141
392,236.625191905183,231.971728225552,228.022312392015,231.282997100099,225.348907143804
393,240.140916956726,235.447505443409,231.47407724309,234.805574407013,228.711837989922
394,245.969681396573,241.142719059066,237.134637832167,240.566608120179,234.279234939288
395,254.393363785194,249.391686682857,245.241007430311,248.840043823887,242.325871170238
396,265.60012775886,260.413419946278,256.042312053012,259.791939172741,253.066868542754
397,279.653891579317,274.247169459205,269.59813285252,273.60805711689,266.542140232413
398,295.648486296701,289.985195412609,284.969882328661,289.195268979626,281.810502632569
399,312.181329449289,306.246548149827,300.872786738139,305.313338228791,297.589474506116
400,327.895087652522,321.703513307231,316.040539145422,320.691376910954,312.615582554273
401,341.846275063873,335.417552136706,329.557140019564,334.405040549409,325.985643346644
402,353.485779198306,346.794326777885,340.816414276052,345.836480160939,337.115126748671
403,362.154122319388,355.253712129104,349.225188593051,354.380761735395,345.432746576985
404,367.751343701431,360.682399468338,354.651963996889,359.90019243076,350.816516678766
405,371.231222691027,363.993979986498,357.980830016376,363.284913765181,354.132818452933
406,373.584304943268,366.238751835135,360.231077299426,365.561898616557,356.379610604327
407,375.74217426882,368.366954253686,362.327005267037,367.664437729383,358.46230837883
408,378.07081913503,370.721872067293,364.616699355072,369.957548785714,360.724961125557
409,380.73202338281,373.419147078042,367.204822501835,372.593114189553,363.301073502335
410,383.844472319238,376.5604242423,370.244998284415,375.70760639712,366.310252413231
411,387.247254090599,379.962187522303,373.574940485137,379.122153616711,369.588386833457
412,390.474880340789,383.170243065027,376.737636940573,382.358555979355,372.702057695707
413,393.043303438868,385.720273224412,379.265324420342,384.927397404102,375.207729547227
414,394.642623627427,387.31362076593,380.855187128848,386.516401891919,376.81396379177
415,395.368434207503,388.046067587662,381.597150798172,387.235065788878,377.591466002587
416,395.421395112326,388.0708388197,381.638337165632,387.254309282331,377.663681782582
417,394.87877022887,387.54435947702,381.129898220489,386.745340680955,377.16182897733
418,393.922562056337,386.644313930291,380.24976209008,385.881282510355,376.268762562355
419,392.776319492496,385.557054169184,379.186773759553,384.836037738551,375.188390407499
420,391.659980707344,384.458383760965,378.119158016619,383.773271057049,374.113694569157
421,390.457808697654,383.268882683027,376.968023973117,382.60946940054,372.972445315493
422,388.811862667852,381.647043226156,375.388583842777,381.007294238373,371.420068402659
423,386.352172610221,379.2398412448,373.020834525067,378.618264411956,369.10000205166
424,382.924318792603,375.901481325961,369.742526096918,375.299771511407,365.861204454515
425,378.934711558179,372.025346702482,365.920497816142,371.444857702421,362.087366503202
426,374.885608421123,368.091391080757,362.036324605904,367.532569157602,358.248035722583
427,371.276894741069,364.572307220721,358.562214894591,364.034580942443,354.806603528193
428,368.519479772349,361.887381953285,355.911056068239,361.36835193648,352.181181737392
429,367.012685411779,360.432065611588,354.470313634186,359.927142882084,350.769672669067
430,367.146316031291,360.592201336109,354.608929264338,360.094721212448,350.960126396286
431,369.043233037602,362.483715281826,356.458089400032,361.988221693198,352.863234160122
432,372.527567223984,365.920474822743,359.844970150492,365.426395724494,356.279300396881
433,377.408860341893,370.700302194808,364.578548768623,370.212144111863,360.992154472546
434,383.387825479024,376.529075771342,370.369740834741,376.056868456757,366.703272645346
435,389.850745814054,382.848896082891,376.648132695051,382.409468199247,372.877868257344
436,396.191538951655,389.054855412632,382.793174588455,388.672061873136,378.939049879824
437,401.842788653227,394.610526646524,388.255568651548,394.312153390431,384.374976393031
438,406.83383286378,399.543100304244,393.072443313088,399.335389591825,389.209191877119
439,411.482884594421,404.156779843179,397.569150187598,404.011909670038,393.728377365665
440,416.120505033944,408.753818008373,402.068824463678,408.610869026744,398.217665665564
441,420.958379717154,413.503348705943,406.749678063622,413.304514270213,402.846210589917
442,425.979568926056,418.411070732899,411.611995051938,418.146113362643,407.640774088615
443,431.165075093754,423.472651578388,416.645139232486,423.181620224423,412.619372049026
444,436.457539653294,428.644993972941,421.797930287321,428.396351142555,417.748170074399
445,441.68287545828,433.790091644533,426.889854271404,433.58219152639,422.827934074709
446,446.692524558393,438.67625319582,431.714664278588,438.492540667135,427.62652108719
447,451.157197671129,443.10410845544,436.078568516725,442.89833915678,431.928046497645
448,455.066844345453,446.987840108411,439.903730805879,446.733834986303,435.667988960184
449,458.405333585971,450.337398148488,443.175378709274,450.022092683195,438.864147717749
450,461.153216071592,453.075887522785,445.879419440694,452.786318978952,441.53465796073
451,463.326496799522,455.187608021029,447.986686619563,455.0177878797,443.676803312416
452,464.903971013522,456.695851764466,449.506700167973,456.664495738122,445.259607769515
453,465.875460846985,457.626665436688,450.453632298364,457.671362299785,446.250087137109
454,466.320829395778,458.05623761636,450.871392008179,458.060971268948,446.682415257941
455,466.471619153127,458.239946078049,450.994408520694,458.133449555776,446.83076477715
456,466.638721733278,458.473180197763,451.170317034907,458.250897383509,447.022898269668
457,467.142831110352,459.018354624323,451.687017130703,458.73726998784,447.551063347241
458,467.852679900972,459.78670715621,452.453912021539,459.510283107523,448.329277565592
459,468.489509716487,460.477298762052,453.151721967936,460.242207462555,449.043036429047
460,468.837554982044,460.788932235245,453.460938368181,460.604799741417,449.377486644602
461,468.654872608417,460.56927029299,453.225232224776,460.4300737475,449.174180012284
462,467.994622937501,459.889951070734,452.533795424339,459.791166975658,448.509996251372
463,466.933527528037,458.841110699357,451.496097276025,458.781131181773,447.48125067282
464,465.606936516243,457.524271581619,450.225869652836,457.503041688184,446.19383692317
465,464.142425404865,456.086824975031,448.854015888658,456.100353101928,444.792234350097
466,462.716158228268,454.687710867163,447.515291603604,454.726686611732,443.430637299581
467,461.455562500738,453.481265667447,446.335362530024,453.531511214722,442.258668001313
468,460.484926369857,452.565071945382,445.435009744709,452.613106852368,441.369582713253
469,459.877408368315,451.998498697419,444.864577449583,452.035286781245,440.818685280264
470,459.72179074554,451.839543680662,444.705366950664,451.860556767409,440.65999111181
471,459.984161568868,452.096661057066,444.972192006322,452.101417597775,440.903835172594
472,460.591604793948,452.695110614044,445.581921521782,452.686400921555,441.487203545994
473,461.450458441583,453.552191305731,446.442052102156,453.536003417938,442.340063593044
474,462.524255720534,454.577124565311,447.454350426477,454.561476614926,443.379254478072
475,463.65795091572,455.642278577035,448.494440698468,455.631891542309,444.461718683722
476,464.664125115571,456.609517122907,449.430495646493,456.604296384317,445.427326145276
477,465.38572705362,457.335853172167,450.126054216492,457.331309218612,446.113759603964
478,465.606820771944,457.608192125828,450.377681710103,457.601523511278,446.327104024193
479,465.084888821234,457.160703202676,449.931564641051,457.155372256313,445.849675950513
480,463.598408937562,455.728197612883,448.534503860325,455.734011145356,444.511028806958
481,461.10010350085,453.254867800148,446.133435067788,453.284614666682,442.18220497686
482,457.846188979088,450.079220454452,443.052195086479,450.142339293147,439.166849051937
483,454.2753807183,446.583391102707,439.656322904138,446.685269702448,435.825576921009
484,450.766080220054,443.13954405064,436.302127402551,443.281475880698,432.507323968312
485,447.635436825316,440.06809926504,433.298019044439,440.247057891165,429.512601892688
486,445.133590928327,437.672743620539,430.936918894525,437.881309755603,427.164723619727
487,443.609556448793,436.24277104975,429.49766936836,436.469368404485,425.771827325129
488,443.132227084521,435.820210671066,429.032490945974,436.053160780336,425.381211268658
489,443.527194260259,436.238907629984,429.396057971148,436.469843803309,425.860035065399
490,444.612618704877,437.32582313359,430.439448356356,437.549796018773,426.97060140483
491,446.141870103512,438.841804325151,431.937007171564,439.057118687437,428.453770197222
492,447.752393540134,440.407439655785,433.501820329533,440.615308110503,429.957389277073
493,449.011172281637,441.625414785946,434.726390427368,441.829913600521,431.152859215844
494,449.537178480119,442.150890579446,435.257782271517,442.358464930494,431.676025172267
495,449.352349666219,441.95589000677,435.066475871889,442.166603868796,431.487401015439
496,448.495675297836,441.156284316406,434.24166418387,441.333067926108,430.661707508772
497,447.054631249446,439.757722862994,432.875543173309,439.940149679408,429.2775193361
498,445.183053875106,437.915630722642,431.118909462151,438.140385301758,427.540531576897
499,443.121886760696,435.890756640115,429.177860560606,436.152599187488,425.621237969631
500,441.127088266803,433.950960674091,427.260579827774,434.198117645282,423.722426209052
501,439.406247509297,432.256593254037,425.552511767291,432.471506857102,422.029327313539
502,438.062749154392,430.91824761269,424.18454293894,431.103126717441,420.675075568279
503,437.184671968911,430.034229220508,423.279546248559,430.213906285736,419.807959852268
504,436.829091505889,429.676427843649,422.930065375532,429.893351609852,419.487543199578
505,436.894121397373,429.737120285341,423.022421134091,430.017308706156,419.576465816378
506,437.192811208664,430.03380896058,423.357082023978,430.372675121573,419.942805580134
507,437.524016111599,430.382263820602,423.733175045016,430.745602027958,420.366137139267
508,437.661506078975,430.560280116545,423.922771268708,430.910648291483,420.608887038011
509,437.352492600446,430.305448099351,423.669296810816,430.630099642493,420.399448112168
510,436.343109931211,429.353629730169,422.715005259388,429.665839925075,419.46462417917
511,434.509682920557,427.574170893632,420.935615107743,427.902463236525,417.675006858879
512,432.083002014829,425.199849709749,418.570225304327,425.558662796072,415.292674034793
513,429.353618879073,422.524717249929,415.919199019078,422.909459350522,412.660520374676
514,426.611610945858,419.841151265301,413.279271322989,420.231037973641,410.069047556379
515,424.143340587801,417.428420988453,410.918755350767,417.808704886993,407.777965977097
516,422.233419120155,415.559617079312,409.092567834019,415.932065476397,406.046892641658
517,421.160627124764,414.502340441396,408.050533932909,414.884834402328,405.086856109226
518,421.000818256996,414.349195975672,407.881619611031,414.760890159054,404.975672418937
519,421.597856611439,414.984818008006,408.48362086734,415.428504163619,405.615425720232
520,422.864278839825,416.281717226139,409.743186450482,416.74280133234,406.897951604437
521,424.649930745064,418.085025637795,411.515734931303,418.53981894148,408.68332406547
522,426.71296909514,420.155075941328,413.559956422326,420.596474591225,410.733242686085
523,428.793852880719,422.235832909584,415.610490147098,422.678274627812,412.790418863332
524,430.656656172347,424.0947310353,417.447082733876,424.570596021865,414.62134379064
525,432.279547542571,425.711981478391,419.031027319497,426.238962982762,416.208096484544
526,433.802716274398,427.181064704918,420.458968127426,427.744799110577,417.647521755493
527,435.218406034015,428.595212965238,421.822094609243,429.149849643111,419.036228379962
528,436.57751628632,429.993918134122,423.164822162171,430.492327905113,420.417013425832
529,437.936274787272,431.344972746378,424.469161170666,431.779051411099,421.76087944995
530,439.216348211185,432.611181355285,425.712780011608,433.014651780981,423.033834226072
531,440.35974726188,433.73426959255,426.845588294141,434.167704464589,424.178008808931
532,441.223439498844,434.581598005811,427.719564474259,435.079581055041,425.051298719125
533,441.645647737213,435.004135997947,428.165101559254,435.563615567675,425.493032741928
534,441.485048243408,434.871519598249,428.033486618369,435.455441002274,425.362834687436
535,440.81590045548,434.250134541916,427.39623401068,434.825725792244,424.734241693111
536,439.841690967767,433.324304364221,426.456869078243,433.886025808929,423.809017096898
537,438.766538166839,432.279054513385,425.419543904147,432.848528787161,422.789493611038
538,437.733262345481,431.250329321679,424.424770132982,431.855475700852,421.814030749347
539,436.792900685053,430.300582784953,423.517769048781,430.944374554991,420.925199415649
540,435.988960735787,429.486239956302,422.73594457949,430.144141353155,420.157712282678
541,435.362564110738,428.858564805973,422.116885060974,429.488105621293,419.547537058802
542,434.945248687969,428.448090477449,421.69891955131,429.027324941709,419.13568262824
543,434.766146373375,428.280145693159,421.520563064988,428.817307479932,418.964423449521
