"wavelength","nadir","45","70","-70","-45"
319,13.7293558913016,13.0675341271267,12.470416518398,11.7934460996917,11.2145632949184
320,15.8172629282547,14.9845437195927,14.2515413043166,13.4774742127864,12.8315419605893
321,17.7489871781245,16.7635163934816,15.9226327262196,15.0794646677353,14.3396190984003
322,19.5358205873,18.4428296447841,17.5267664555351,16.5867708229017,15.7584274563938
323,21.1891604474003,20.0299021490109,18.9889884976951,18.0015952122358,17.1427052994023
324,22.7295602197351,21.5204829606957,20.3642398617559,19.3501077548405,18.4473536450918
325,24.1936927323374,22.9428349960149,21.7299578980523,20.6546971896947,19.6572097732114
326,25.6198700361714,24.3188568690905,23.0613694974279,21.9149455496437,20.8008093956817
327,27.026764074115,25.655009875135,24.36356626799,23.1321429939425,21.9632653243566
328,28.3432612552762,26.887182993148,25.5684206910748,24.2439914168406,23.0712991118019
329,29.4726055910677,27.9311100243113,26.5868941514454,25.1700321525106,24.0229857878614
330,30.3301413692408,28.713844402117,27.3415617602141,25.8411025038591,24.7280195298514
331,30.9958635815197,29.316463870583,27.9130248704971,26.3417400475292,25.2542026351352
332,31.6686031409714,29.931212542342,28.495939580466,26.8674148566507,25.7439005002043
333,32.5481366885768,30.7511688726571,29.2858274038981,27.6143664841737,26.4383197199201
334,33.695704214507,31.8356811653987,30.3417765310222,28.6402034547356,27.374897807531
335,34.9330653943988,33.0129261281053,31.4870307380062,29.7628908334964,28.3678129555045
336,36.058188138403,34.0881141530353,32.5214032530773,30.7765857120913,29.2602912069556
337,36.907287383998,34.9030458357663,33.283832954138,31.515749861132,29.9557915895847
338,37.4888667993681,35.4643471224094,33.789505318934,31.9964027425746,30.4237596862681
339,37.8599209951409,35.8250343210756,34.103210716336,32.2856635248098,30.7141168420673
340,38.0793317969764,36.0399396640386,34.2906792443347,32.4513681452468,30.8836693776551
341,38.2313193325698,36.1882767128332,34.4302392002848,32.5709518563166,30.9948110416993
342,38.4182427076521,36.366712937126,34.6092375782648,32.728721790187,31.1368037750718
343,38.7419897989518,36.671485916997,34.9144477814151,33.0083854158311,31.3985271551302
344,39.2341638709518,37.1331153746264,35.3701377048008,33.4328151981808,31.81110775294
345,39.8053022610893,37.6689213838517,35.8929088989089,33.9200947170096,32.2916890039528
346,40.3539695112845,38.1850291573697,36.3887152682778,34.3779444720311,32.748268278858
347,40.8090538562262,38.6156287184523,36.7919867008325,34.7428927697998,33.1292637064188
348,41.2362162484974,39.0214942913421,37.1655918492713,35.0814033461805,33.4826560398758
349,41.7396616712955,39.4990728966747,37.6085947988156,35.496557145809,33.8935854059346
350,42.4115399804927,40.1335482046172,38.2089000902763,36.0798612495328,34.4374704732923
351,43.1805597883691,40.8573976716123,38.9031127755855,36.7659066781718,35.0579270915793
352,43.8577642003569,41.4931616682008,39.5189135577564,37.376316591253,35.6036829098183
353,44.2529614756098,41.862238179793,39.8827998968408,37.7314981509903,35.92245069418
354,44.2896801061388,41.8932281968691,39.9231765673066,37.7584854409908,35.9520505595498
355,44.0893612982716,41.701303183634,39.745802475759,37.5698804328433,35.7871207130376
356,43.7932791834033,41.4203309181594,39.474209268797,37.2968809424205,35.5380141756448
357,43.541648265712,41.1830168008687,39.2325083979573,37.0679114104553,35.315785803775
358,43.4698246654337,41.116736738177,39.1474697166704,36.9986803705837,35.2464427683815
359,43.7117729235567,41.3473401179387,39.346624520227,37.201254159234,35.4505254547668
360,44.3897320402049,41.9895634592485,39.9464834990436,37.7777654249875,36.0045251322987
361,45.4626337979083,43.0033692787497,40.9100657387764,38.6919984118323,36.8732418911176
362,46.7696290680198,44.2351980374577,42.087808869423,39.8062629879988,37.9267609046955
363,48.1474706966705,45.5292517156486,43.3279179525714,40.9808484237023,39.033283217074
364,49.4653210760084,46.7635387479775,44.5109840696663,42.1044866066884,40.0877267691664
365,50.6500808891816,47.8762944818632,45.5752946808028,43.1165805487894,41.0326062181567
366,51.6346114979947,48.8119718591008,46.4650935978629,43.9617643534164,41.8175395674638
367,52.3597437687719,49.5195007212106,47.1302331466277,44.5905987569989,42.3973480648852
368,52.803985155635,49.9689758773882,47.5470804337933,44.9816632151613,42.7517415163233
369,52.9569662781682,50.1367406176821,47.6998304589873,45.1218090804239,42.8852146944652
370,52.8164789870321,50.0077264553926,47.5802882708951,45.0049500911498,42.772697687151
371,52.4992365793041,49.6920199028005,47.2911542346941,44.7279124853344,42.537330366673
372,52.2119034381108,49.3943735599443,47.0190089109064,44.4653645672188,42.3259812156076
373,52.1619164736314,49.3204838851919,46.9512270595348,44.3927165067039,42.2943018287711
374,52.4094797102772,49.5343724748615,47.1453767882313,44.565406741266,42.4871578909784
375,52.7429521099777,49.8384779811812,47.4193562604319,44.8173625770399,42.7413493738294
376,52.9213415977218,50.0069960175509,47.5651865413389,44.9585948239796,42.8712114508554
377,52.7501934859012,49.8565881174176,47.4141796919071,44.8334333558699,42.7262423668563
378,52.2649648406598,49.4137130266993,46.9917596956623,44.4557568027289,42.32965882901
379,51.5719874338855,48.769503504091,46.383189257592,43.8917104491118,41.7582295908881
380,50.7783293115206,48.0164225373544,45.6749340809478,43.2095999580997,41.0902107342073
381,50.0021808682981,47.2673057744304,44.9718780487844,42.5110488808739,40.4431836088016
382,49.3705064577216,46.651060008287,44.393434380833,41.9239638660091,39.9257200675725
383,49.0100115041922,46.2965197333109,44.0589425909545,41.5764759926596,39.6249669729418
384,48.9879106139437,46.2716467466717,44.0317111406509,41.5381634510098,39.5976041271976
385,49.2562382271185,46.5265472235815,44.2665667775108,41.7670511729769,39.8462531388116
386,49.7538454019523,46.997837727917,44.7059195639161,42.2009446242372,40.2737484690863
387,50.412027061354,47.6159653833838,45.2858851411618,42.7814934120552,40.8062885756981
388,51.1225722364047,48.2791215075786,45.9096699042409,43.4063912161224,41.3632127915199
389,51.7644017833643,48.8749907991406,46.469760785427,43.9631845750217,41.8608196866331
390,52.2271191177266,49.3013310080984,46.8683436086596,44.3492265610843,42.2233648274899
391,52.5804058522975,49.6256885443887,47.1710916557441,44.6271824264776,42.5091765285855
392,53.0436440351537,50.0567564790743,47.5795866303213,44.9971427510668,42.8880388444181
393,53.8404206964147,50.8071893746797,48.2992055200304,45.6630322019622,43.5328686250062
394,55.1430329734056,52.0408022570378,49.4854369175238,46.7777998421007,44.5787063657919
395,57.0184861642023,53.8211485923208,51.1913546787651,48.389748091038,46.0828370665413
396,59.5208559988403,56.1994699841037,53.4574563924987,50.5343290286887,48.0929975514064
397,62.663233216411,59.1872723124669,56.2887353538642,53.2134827306086,50.6233269374124
398,66.2292094140471,62.573557700945,59.4913753735885,56.2414957907135,53.499830959587
399,69.9225395053229,66.0699250991419,62.8023996992696,59.3673751181917,56.4857609076069
400,73.4511310381032,69.3925327286818,65.9625389303089,62.3439049737688,59.3393623297932
401,76.6017026453993,72.3438746221804,68.7828441652725,64.995420374868,61.8884337117969
402,79.2306763136443,74.8028033033885,71.1365604770515,67.2095383971715,64.0204783010085
403,81.1974221686767,76.6512781175549,72.8995592560215,68.8764871500704,65.6183074936922
404,82.469761185511,77.8656305515908,74.0436415366372,69.971919609983,66.6545192368444
405,83.2540838762098,78.6297913718755,74.7516338174326,70.6594058709324,67.2938622061135
406,83.788540533804,79.1553281827798,75.2344555487953,71.1275326596989,67.7266653131256
407,84.2889360414274,79.6347788337308,75.6834362160881,71.5485619069181,68.1260054807634
408,84.8355286838159,80.1452472410661,76.1710731537299,71.995729810553,68.5603095762331
409,85.4577389287332,80.7205429173375,76.7252947640422,72.5051321892971,69.0587546409286
410,86.1816874960801,81.3912456467533,77.3710554031191,73.1096868695114,69.6476007218922
411,86.9661634037392,82.1217919271658,78.0725771943414,73.7770249116298,70.2933747096872
412,87.7060437097707,82.8138343532526,78.7364345869516,74.4128064911112,70.9059041544095
413,88.2938155794223,83.3666685070835,79.2670415249792,74.9203631280181,71.3928931174909
414,88.661232326485,83.7154621006441,79.602819402176,75.2378053392146,71.6959220054381
415,88.8335403656592,83.8807947537967,79.7631616975777,75.3860527883289,71.837231148536
416,88.8496017634479,83.8956848523247,79.7792540728327,75.3980848578071,71.8508075987623
417,88.7480611439995,83.7937812601538,79.6829999614639,75.3070805778293,71.7700773669435
418,88.5661184906324,83.6129216041091,79.5110715209122,75.1475453957258,71.6247390256301
419,88.3403847943879,83.3926513050535,79.3020851576659,74.9545255503099,71.4429714392831
420,88.1052601735766,83.1702482088556,79.0924611865265,74.7609993399838,71.251233041659
421,87.8418224824979,82.9281362496186,78.8654746277964,74.5499925828865,71.0345639130785
422,87.4763932387567,82.5924101841809,78.5498258940925,74.2532351726735,70.7354718568088
423,86.9328936856836,82.0866906276431,78.0718171492498,73.8002052709846,70.2946011810274
424,86.1813229724724,81.3796313180093,77.400816516602,73.1620325409488,69.6888353984643
425,85.311568173997,80.5570555475554,76.6182434042588,72.4182177190204,68.9893470955553
426,84.4327655593987,79.7235993413622,75.823508164258,71.6656615911712,68.2824479036963
427,83.6521282502849,78.9821310677686,75.1145623781274,70.9992610564429,67.6533022625563
428,83.0627241764049,78.4225175737416,74.5786280352161,70.4991739652142,67.1786367531445
429,82.7513078891916,78.1288227787289,74.2981382202556,70.2389797353358,66.9314119139563
430,82.8025675272203,78.1830720419192,74.3534850266306,70.2904796365042,66.9827846543661
431,83.2432907717661,78.6101147449754,74.7676821065854,70.6758022941015,67.353145132701
432,84.03547004301,79.370815759509,75.4995320292711,71.3614886558362,68.006071436324
433,85.1376522873149,80.4226393605732,76.5044275992274,72.31112355112,68.902125029773
434,86.48515632434,81.7018326278733,77.7192689750386,73.4681153360147,69.9857358028791
435,87.9466617769732,83.0837726073951,79.0279027441438,74.7179880612801,71.1550537540782
436,89.3789723962953,84.4329886045694,80.3047207370166,75.9359501282876,72.2999812725304
437,90.6549814038028,85.629510654227,81.4384936238007,77.0115664307438,73.3229251359762
438,91.7800035954959,86.6809448356576,82.4363346017349,77.9525604636157,74.2292073071335
439,92.8244377661266,87.6575996929821,83.3635211431359,78.8247295990744,75.0747316255455
440,93.8583530931513,88.629368587922,84.2849803659993,79.6934752271751,75.9151138871192
441,94.9249646534967,89.6369190491936,85.239723787965,80.5967369687683,76.7840043561257
442,96.0345177139145,90.6850369283255,86.2349453491918,81.5387385763691,77.6880853703695
443,97.1952322307213,91.7763055209559,87.2758851950065,82.5216342188776,78.6323829132853
444,98.4026882819179,92.9041906451365,88.3576786800777,83.5390865962008,79.612338720084
445,99.6121453950583,94.0330738424903,89.4432274056069,84.5576710664723,80.5928212756381
446,100.770840689449,95.1215498799929,90.4890195601116,85.5385735347647,81.5326160353739
447,101.829244780804,96.1300973450271,91.4537391754432,86.4449700669784,82.3931338519372
448,102.767931747189,97.0367329662282,92.3165133205961,87.2585648867837,83.1602277100938
449,103.583847767868,97.8290117844723,93.0675872365887,87.9711389615331,83.8330437187007
450,104.274049803822,98.4946842069699,93.6973912105546,88.5745990090435,84.4107468327415
451,104.833331409625,99.0257866148927,94.1995229987249,89.0619248258682,84.8876182305661
452,105.253418599674,99.4201640666736,94.5718731518945,89.4275505263224,85.2513202257032
453,105.525819823574,99.6760756875906,94.8126383680178,89.6660143656471,85.4890447364073
454,105.658168067159,99.8050079555035,94.9327003056764,89.7850420649228,85.602788933048
455,105.715719640565,99.8657171746238,94.9882721349852,89.8394866306326,85.6474586608227
456,105.776597709402,99.9275146463139,95.0456892120713,89.8947242380875,85.689773874587
457,105.910638112195,100.052301805,95.1642882088488,90.0092035713536,85.7896025696276
458,106.099417657853,100.22306589979,95.3288706581079,90.1675963718587,85.9338402017911
459,106.271188110961,100.375115178014,95.4792048579133,90.3099992395037,86.065293096136
460,106.354084042317,100.44366289211,95.5549273055887,90.3764142218979,86.1266536330939
461,106.310751381343,100.395322509134,95.5229989648658,90.3358810727965,86.0882027638924
462,106.155762027761,100.243952422929,95.391493334238,90.2011298301676,85.9617313473627
463,105.90797641603,100.007312957502,95.1718793717817,89.9884988863431,85.7624585207028
464,105.589081113354,99.7058409243709,94.8799865049674,89.7165168427983,85.5077473978235
465,105.23214757865,99.3707551906854,94.549210028251,89.4125354159096,85.2235979631979
466,104.873113726555,99.035989298961,94.2173679202194,89.1061277808798,84.9381847680546
467,104.546967702529,98.7344136764495,93.920962580765,88.8261048924548,84.6788184591213
468,104.276988705893,98.4857924509707,93.6802776900659,88.5918808977768,84.4621592941652
469,104.078572052362,98.3010649989031,93.5046765177825,88.4165428726539,84.2976963965061
470,103.966824322851,98.1909220917005,93.4032301370223,88.3129583946392,84.1947240184597
471,103.946191876733,98.1597335402868,93.3783496287619,88.2863592735043,84.1579377653562
472,104.003220263775,98.2012549004799,93.4212625117412,88.3291552191547,84.1843111230764
473,104.122742113112,98.3082260546737,93.5221261545265,88.4325290003733,84.270078651272
474,104.288851475449,98.4706698783837,93.6697021028197,88.5853476144371,84.4084214148655
475,104.482272677667,98.6662130513831,93.846383536611,88.7659124773904,84.5785890755651
476,104.682769563233,98.868948925171,94.0327484397532,88.9495134630533,84.7558603815909
477,104.868214163372,99.0515646671868,94.2076641484686,89.1104253257407,84.9145446976159
478,104.989133274209,99.1664247446392,94.3252724228776,89.2082524239263,85.0149431339101
479,104.975484110899,99.1506065216498,94.3211159970623,89.191563778702,85.0068195381403
480,104.757157577855,98.9412135573866,94.1306863690326,89.0089836955786,84.8399947853229
481,104.311339158969,98.5186898609462,93.7331854493083,88.6443705902966,84.4983935614328
482,103.704281185933,97.945099730691,93.1901321644739,88.1479370182917,84.030166072026
483,103.01209077762,97.2915383288794,92.5721533942352,87.5772372782093,83.4905687450352
484,102.310826677401,96.6291363362916,91.9489395792676,86.9908662150865,82.9359498468389
485,101.676296590363,96.0292087523977,91.3853216332417,86.4528184523985,82.4283235956136
486,101.184227040791,95.5631301816735,90.9445589952507,86.0288347947888,82.0315364658857
487,100.906850598254,95.2990835190306,90.6872253207636,85.7818706045576,81.8066198641819
488,100.856340639314,95.2503867382483,90.6277401712016,85.7269853059578,81.7661992582462
489,100.994303857809,95.3841644341973,90.7416637874852,85.8389124616775,81.8821448604523
490,101.280683018744,95.6659987530602,91.0032261433313,86.0910188960174,82.1249682310678
491,101.660748519868,96.0442489232274,91.366597610179,86.4381936741884,82.4503622410295
492,102.048643840942,96.4307363506489,91.7433928093264,86.7961259366918,82.7825824260844
493,102.354539383923,96.7326187090212,92.0397944941814,87.075501297793,83.0418716221448
494,102.498956190853,96.8684673684175,92.1736884277707,87.1982341414262,83.158323759365
495,102.463768288003,96.8245079046403,92.1323294709385,87.152796911966,83.1204247151307
496,102.253369958557,96.6117990799039,91.9284351400837,86.9520928885638,82.938093744027
497,101.873554447607,96.2424875880581,91.5756972596994,86.6099257271732,82.6220784766779
498,101.358453828788,95.750526287807,91.1072341819014,86.1580229621019,82.1996501949804
499,100.768943261825,95.1904463106309,90.5744968902972,85.64502672316,81.7136733952019
500,100.166929264842,94.6175740490734,90.0296437185456,85.1202345078313,81.207624803909
501,99.6101686414816,94.084541750359,89.5220923960871,84.6312405603773,80.7258466154545
502,99.1464616744833,93.63751752682,89.094685047391,84.2215524640665,80.3147575641895
503,98.8221461993715,93.3217200169551,88.7892979499933,83.934077539681,80.0210813936312
504,98.6750539439951,93.1743028333274,88.6406594135188,83.8041024909522,79.8837009626831
505,98.6851795562175,93.1775816334797,88.6348953071351,83.8150978143953,79.8881852188996
506,98.8084396207026,93.2910425727208,88.7378978949718,83.928962483336,79.9979080798093
507,99.0000630876085,93.4734774117439,88.9147297228204,84.1069848415079,80.1756163672303
508,99.1997356430899,93.6678570226734,89.1109572301752,84.2966665391697,80.3699019541395
509,99.3306868345885,93.8004022091288,89.2515057203111,84.4309128239094,80.5143704273929
510,99.3154060883244,93.7965767931191,89.2603568086264,84.441971024573,80.5419493632987
511,99.1096818098487,93.6133643450339,89.0932537636492,84.2906853979957,80.4132851156081
512,98.7599644273626,93.2935662050267,88.79241624968,84.0157601049849,80.1644930307816
513,98.327989556144,92.8944521822631,88.4146434412534,83.6690261169261,79.8444121695571
514,97.8756496774053,92.4736137872641,88.0168427936559,83.3025846287605,79.5022193212032
515,97.4660661345444,92.0911626865754,87.6567700159498,82.9706537227573,79.1897369852942
516,97.1629394831919,91.8083983977615,87.3925806333604,82.7284492554288,78.960034691212
517,97.0287344965518,91.6854307990444,87.2812834636826,82.6300949106287,78.865170829934
518,97.0861520567147,91.7439719135588,87.3430155349871,82.6944799096002,78.9245226741301
519,97.3106364274339,91.9601005848883,87.5540943183134,82.898619765926,79.1186282608868
520,97.6748771386677,92.3072357903195,87.8882833220885,83.2170898118369,79.4257615794228
521,98.1455227855134,92.7534319956329,88.3145809106192,83.6206590448095,79.8192534392785
522,98.6705115247341,93.2501282976243,88.7872264850278,84.0683071957027,80.2571242616729
523,99.1941700324907,93.745556701854,89.257610677835,84.5167384363029,80.6944392633855
524,99.6660432931053,94.1927530080736,89.68172983679,84.9265402464488,81.0903812993268
525,100.082985514197,94.5883042523787,90.057335760538,85.2935062076709,81.4414637644577
526,100.467035445317,94.951981489995,90.4044083003268,85.6321714804682,81.7640725539781
527,100.840169885674,95.3035258050813,90.7428666230169,85.9570762540175,82.0745853730543
528,101.212137575804,95.6525392863857,91.0815892034973,86.2757730706844,82.3814120471452
529,101.576372823636,95.9950967766933,91.4147242450812,86.5864916934768,82.6823318151229
530,101.92517487672,96.3263318363741,91.735395076989,86.8868130387262,82.974384139198
531,102.244551994491,96.6340500287005,92.0305829412636,87.1672956090339,83.2479922594104
532,102.49831823359,96.8802042129339,92.2656001901153,87.3937232815239,83.4702378081063
533,102.645395725967,97.021048936836,92.4009830376729,87.5264192459885,83.6030575882364
534,102.649294756956,97.0177891320229,92.4016891350887,87.530061580892,83.6125123203177
535,102.521885599851,96.883807694477,92.2792789001307,87.4152296993402,83.5081295812088
536,102.304026985972,96.6637645902079,92.0732478762972,87.2200176803597,83.3254923128285
537,102.036823127928,96.4025329871647,91.8233204058874,86.9827486818009,83.1004030151346
538,101.753309225324,96.1334512186114,91.5610199523821,86.7338723204197,82.8613521911416
539,101.47443855035,95.872586232166,91.3055906059913,86.4920489703538,82.6258819148226
540,101.220173207482,95.6345880790156,91.0752690913025,86.2749718490741,82.4106360814896
541,101.010387553991,95.4351383671801,90.8878419018169,86.0995964308465,82.232276445223
542,100.864603487755,95.2940622200249,90.7592870612004,85.9799148531695,82.1075364944725
543,100.802254422622,95.2322249798492,90.7051285813908,85.9291753154226,82.0531677264182
