"wavelength","nadir","45","70","-70","-45"
319,10.3722147292153,10.5067875893367,11.367157815811,9.91935816480632,9.73687135481383
320,11.3012303891514,11.4398509371588,12.283765297305,10.8544770514142,10.5693425968788
321,12.4172444523258,12.5712940633737,13.4478236476069,11.9501356894304,11.6016675894428
322,13.6810082943931,13.8592426890128,14.8071734571421,13.1727194781002,12.7914917076489
323,15.0540544877388,15.262573052678,16.3097569220781,14.4896457253645,14.0969872291342
324,16.5041448160858,16.7461459707022,17.904326436088,15.8765601112136,15.4805279173596
325,18.0020218570743,18.2776859915884,19.5400220874763,17.3130457452791,16.9064980251898
326,19.5176986458175,19.8242167719087,21.1658890771691,18.7777220602488,18.3387897427836
327,20.9988800023012,21.3313298413985,22.7280711055229,20.2197408268716,19.7262487889998
328,22.3676965352676,22.7200468690495,24.1693855830919,21.5544719912644,21.0004715584772
329,23.5449215234165,23.9100887531709,25.4325039591084,22.6954832923779,22.0921509991669
330,24.4917813210562,24.8627918502937,26.4912093152163,23.6019461182139,22.9694488834435
331,25.2835372533856,25.6568041797962,27.4069866949768,24.361586007821,23.7061495164099
332,26.0153998279599,26.3912961651608,28.2566636497591,25.0846176558269,24.3945147206344
333,26.7734966674685,27.1559053541951,29.1107283364856,25.8683531122163,25.1176516277363
334,27.5741170504544,27.9669709691248,29.9909252785731,26.7108959320577,25.8882769078775
335,28.4011556409315,28.8068327003735,30.8963891962212,27.564331669992,26.6864565162966
336,29.238188820415,29.6575223658052,31.8253239231657,28.3813489921336,27.4919593284894
337,30.0647941067545,30.4976196752566,32.7529761236978,29.1389814305125,28.2811986305517
338,30.8560714199506,31.3018389526023,33.6288869164558,29.8415218909115,29.0268303962188
339,31.5869053923998,32.0447118983871,34.4012844561419,30.4947118824712,29.7013366922244
340,32.2477083396792,32.716519199771,35.051616080526,31.1099294843069,30.2951298666963
341,32.8718010079079,33.3510615134031,35.6531253723627,31.7141285937952,30.8481699191934
342,33.4998535917439,33.9895936901815,36.2947789732567,32.3369309680625,31.4089034778885
343,34.1694757928894,34.6702590102821,37.0548321605076,33.0053457370834,32.0216963939136
344,34.8951043290058,35.4076410268275,37.9304375009407,33.7266001302808,32.7000162995158
345,35.6805688928247,36.2055392432149,38.8816242254171,34.4988665608339,33.4431877119506
346,36.5294380184625,37.0674809984976,39.8690640105102,35.3202475300997,34.2503033332421
347,37.4394930936575,37.9909233505666,40.8768562020829,36.1882000091162,35.1160063665921
348,38.4020807881402,38.9665738222296,41.9151493307961,37.0994632048804,36.0299926251892
349,39.4081984068023,39.9847744742992,42.9954297343483,38.0507239454473,36.9816893062068
350,40.4393982303296,41.0266732232679,44.1126264314953,39.028011499858,37.9532590233434
351,41.4511810969297,42.0480585247457,45.2159997341041,39.9879592584834,38.906827080238
352,42.3945945136983,43.0003837931547,46.2470031743047,40.8821755701379,39.8010935277296
353,43.2234050346684,43.8376778695131,47.150587073705,41.6642455711967,40.596088834632
354,43.9120577689185,44.5335559064582,47.8982950990662,42.3027880150827,41.2619613978289
355,44.4444992043974,45.0706325716787,48.4738900227482,42.7733292989607,41.7735085980307
356,44.808643739638,45.4355871592192,48.8654377085893,43.0558377908637,42.1095602252045
357,45.1042580076487,45.7297878369049,49.1820167366601,43.2560582358555,42.3633694114174
358,45.5565654606035,46.183241251405,49.6684371771378,43.6208099338568,42.7565299392873
359,46.3973280671463,47.0326589377269,50.5765834018538,44.4042634520568,43.5173294050184
360,47.7686916278502,48.4233065348906,52.0616199680536,45.758845387067,44.7863965668234
361,49.5618141350192,50.244337358625,54.0078284572673,47.5520282169579,46.4588542647707
362,51.6242467799314,52.3404075867345,56.2524270494015,49.6017762877738,48.387170965407
363,53.802899226906,54.5552648580276,58.6315190182128,51.7294871940129,50.423970726773
364,55.9396875798452,56.725584864761,60.9725293564569,53.7832824789371,52.4230887103752
365,57.8741871399138,58.6847282232804,63.0988149887734,55.6238109183221,54.2389277997607
366,59.4488922851138,60.2691872768892,64.8367972432261,57.1143692331239,55.7283851965056
367,60.5940522125025,61.4097399752704,66.105297681173,58.1953428407798,56.8229027396301
368,61.3406986647673,62.1454471354118,66.9292554633072,58.8956501322359,57.5395335018787
369,61.7254526060287,62.5213692019384,67.3395012071203,59.2491225930098,57.9000874961186
370,61.8218052901664,62.6164200559172,67.4122939376652,59.3253163226909,57.9671356455499
371,61.8098292691021,62.6073740298164,67.3552130107377,59.2970569032782,57.9210768253905
372,61.8887429419305,62.6885847245239,67.3994276523017,59.3557208423479,57.9634760629271
373,62.2329488718634,63.0304126274584,67.7475248387452,59.6687791618389,58.2704690609876
374,62.8155312763912,63.6085742118218,68.3702181883008,60.2097697498311,58.8118962536425
375,63.5118231370626,64.3042754734419,69.1256339280199,60.8580651889179,59.4574302665214
376,64.1963274188088,64.9977060058776,69.8710470748967,61.4924118548084,60.0763260174669
377,64.7376386030718,65.5564279418249,70.4603146975768,61.9914686437856,60.5457759319043
378,64.9973042638011,65.8329429422485,70.7432173591417,62.2337901175059,60.7524393114485
379,64.8365152552555,65.6789291101025,70.5693575041048,62.0979730386744,60.5835775627134
380,64.2063952944866,65.0399276413666,69.8857455035009,61.5402607281528,60.0031386142953
381,63.3306263375906,64.145949263537,68.9346045359789,60.7522188183802,59.2074831384856
382,62.4843291121417,63.2806914437783,68.0138720532231,59.9698243331057,58.436834088362
383,61.9276062928723,62.7120620501424,67.4055278273261,59.4184338974874,57.9197529899727
384,61.7913243486466,62.5720932880392,67.2542295696167,59.2320114619405,57.7844502386219
385,62.14042755567,62.9235084447616,67.6345882790098,59.4979024192436,58.1079480464721
386,63.0345098866156,63.8236675189316,68.6152065910225,60.2980794452668,58.9618870221479
387,64.3593044513923,65.156576642597,70.0682954411736,61.5342891262719,60.2386769512474
388,65.7822934660625,66.5886274960537,71.6195314766616,62.8820367626673,61.605735710849
389,66.9571510481879,67.7724441424601,72.8789947765519,64.0025114653077,62.7162459025529
390,67.6616531951997,68.485098169626,73.600030368033,64.6771363022893,63.3490513420457
391,68.0738665597435,68.9050666979383,73.998084416598,65.0751490111866,63.6883161332697
392,68.4524116774636,69.2916050870086,74.3815956184014,65.4438305641675,63.9997704188744
393,69.0606675999974,69.9091112385119,75.0606536419346,66.0346913699806,64.5512671287195
394,70.2062130732936,71.0697497922227,76.3606832880507,67.1385271532672,65.6303767991492
395,72.2206210929173,73.1116160432106,78.6154341887922,69.067460068421,67.5353738679527
396,75.4269760939524,76.3641648231925,82.1496436556724,72.1257146440124,70.5565403263882
397,79.7853722268533,80.7867423738664,86.9097465887076,76.2802069146027,74.6472940787945
398,84.7701577965179,85.8434235271462,92.3359416812446,81.04647389285,79.3102687036839
399,89.8217546881722,90.9636914435398,97.8330700608864,85.9085255356548,84.016613668783
400,94.4560452375412,95.6545642127721,102.884410467531,90.4095084787616,88.3127883324139
401,98.4517013238932,99.6930737996894,107.246399092372,94.2985116858148,92.0075172745227
402,101.644564143635,102.914993124544,110.734896960448,97.3694264443911,94.966580327053
403,103.896991634392,105.183104073895,113.19518386499,99.4485099915824,97.0783772864779
404,105.341891007696,106.63575996152,114.77269814087,100.692248081922,98.4620985629521
405,106.270334996674,107.57241561847,115.788353486888,101.450181010262,99.3718568204069
406,106.973546881229,108.292586903596,116.563206149553,102.071461960213,100.061907198474
407,107.650966329669,108.99769359351,117.315261936963,102.764714137841,100.708910885086
408,108.369505638186,109.747513446509,118.113730989213,103.535647960053,101.377490302953
409,109.185743508681,110.590779941418,119.016221370243,104.374152200694,102.123531841787
410,110.132455600414,111.554221600912,120.056266559584,105.267085436632,102.982134719663
411,111.151697311156,112.580699712473,121.175644851265,106.189757289987,103.909172247482
412,112.163914450209,113.593098367653,122.294278431701,107.114726419038,104.841646105684
413,113.090989448686,114.515811224868,123.332696492816,108.011501389315,105.716637517746
414,113.871197714562,115.290457279451,124.218354633526,108.814786825925,106.472135355288
415,114.453246448113,115.86961699752,124.88311612316,109.437139608589,107.046706078557
416,114.786907500736,116.206882237413,125.260032653657,109.792004703344,107.379871804273
417,114.878295174274,116.308308503619,125.352345654948,109.87093206455,107.470588433601
418,114.822331002023,116.262644742775,125.27392994721,109.788581091076,107.411491674135
419,114.721751054683,116.165916459815,125.148395467365,109.670444121208,107.303460530092
420,114.644384241833,116.081294248179,125.058739187907,109.600975886205,107.216146195333
421,114.510633590308,115.933190229557,124.916434475856,109.491314088698,107.087313243308
422,114.201988711733,115.609390894351,124.58768063134,109.206848986084,106.819914457807
423,113.609565598553,115.006910371017,123.949322235739,108.624322820804,106.323810940918
424,112.749682491054,114.142778874301,123.016658264343,107.768123557222,105.598714990904
425,111.726228954242,113.117970540434,121.901828083858,106.765908323634,104.707184329432
426,110.645262148485,112.035576032823,120.71939610445,105.747540887752,103.713708968924
427,109.643842650306,111.031649747522,119.620559514214,104.850157325402,102.736596929516
428,108.912977812138,110.299603859795,118.820257517683,104.223547723636,101.987801008677
429,108.649079743683,110.038597039835,118.539815430897,104.018769934965,101.688655978653
430,109.007570287575,110.406018607503,118.953824000922,104.357729699621,102.013716109997
431,109.949815745026,111.361514016302,120.015623840707,105.224321241037,102.916068085125
432,111.379813167903,112.806269079306,121.613146690988,106.561638004367,104.283325427631
433,113.19811002789,114.638257937781,123.630876954376,108.307037690294,106.00100061458
434,115.253184205422,116.706987679908,125.901281587741,110.31117626299,107.92296112067
435,117.353130439215,118.824376240072,128.216484848246,112.357467205389,109.878531792464
436,119.305774263432,120.802117407783,130.36839944227,114.228492621072,111.697098095238
437,121.014143100297,122.543717584529,132.250985751267,115.8190142808,113.293026080192
438,122.56614322018,124.130980160375,133.956377291793,117.241643076579,114.745711223471
439,124.070919867529,125.666191372163,135.599473808785,118.634016515873,116.153507663683
440,125.623223143046,127.238987708105,137.281704473809,120.11306196884,117.602261894256
441,127.240544923997,128.871114906374,139.032202371238,121.684556236854,119.110692322733
442,128.914569130295,130.561639933823,140.855950219931,123.317146492728,120.675093351793
443,130.635866337965,132.30810685737,142.755754612856,124.979510884204,122.290380400236
444,132.375274804507,134.080908965857,144.695520974177,126.641355388576,123.926907785184
445,134.086526980329,135.826902731016,146.605431580504,128.273277001292,125.533737978769
446,135.722817709002,137.492210178567,148.414637663172,129.84588149022,127.059284592796
447,137.242997256335,139.031765766585,150.069069290217,131.325723211702,128.46296763
448,138.618305070762,140.419809113595,151.551413479606,132.670481202932,129.728318500114
449,139.821622040597,141.633137574274,152.849227168924,133.836658612167,130.84206312749
450,140.82905191793,142.651220463273,153.9506338388,134.787728277775,131.791483225893
451,141.636532148649,143.469970494554,154.847243509205,135.530054922237,132.567280869931
452,142.247539160242,144.091550679484,155.531991467915,136.086306893999,133.161458246924
453,142.667695357147,144.52033711565,156.000486555196,136.480478442364,133.568387233774
454,142.949582122628,144.809198405077,156.307185239801,136.765080926678,133.834593650703
455,143.191621614311,145.058340932889,156.563990317614,137.020463756423,134.057515352391
456,143.494015568674,145.369809560565,156.88505253383,137.328027622827,134.336584441535
457,143.908758424906,145.796161915483,157.33082040846,137.728830102772,134.724389494467
458,144.367452975152,146.266367497161,157.827627924849,138.163176931474,135.156533286411
459,144.78321726496,146.690420275821,158.281217328579,138.555904562784,135.550656774296
460,145.076127950631,146.985766358756,158.604787770465,138.837414942866,135.830857727928
461,145.215953114842,147.123067550162,158.764788147652,138.977853188084,135.967342005809
462,145.194070675243,147.09612812593,158.750824636417,138.964647946633,135.950366977543
463,145.003388300035,146.900233738741,158.554111943127,138.78678238641,135.77167492301
464,144.676910165316,146.569246066728,158.207976656259,138.474518348397,135.462034723441
465,144.292025102882,146.179728352262,157.792360929735,138.1038109219,135.095415587345
466,143.928408197724,145.810443709137,157.389610531355,137.75296856596,134.748012696721
467,143.650424535918,145.525738648542,157.068427184072,137.48425060539,134.481841512654
468,143.47840264362,145.348492821472,156.858267879231,137.313753810386,134.318131985209
469,143.424801852882,145.294175882037,156.781576698651,137.249325848507,134.270825822512
470,143.499819245081,145.37543922638,156.857569962362,137.297804391915,134.350933259199
471,143.694664599862,145.581280322692,157.078373054934,137.457550117898,134.544860372499
472,143.991061307799,145.888878721763,157.422576254289,137.722688448387,134.826720570934
473,144.370434621332,146.2752044936,157.868304177615,138.08680467493,135.170573344033
474,144.805873077001,146.712763178769,158.380313837202,138.524879031008,135.551830212372
475,145.259930655656,147.168418787698,158.906470488452,138.988381770564,135.947611168616
476,145.694484187451,147.608671308442,159.393555665151,139.427275236199,136.335142949584
477,146.060140463208,147.986268227273,159.781732941055,139.784611281613,136.676415263659
478,146.269809878027,148.207957213238,159.989029921022,139.980327331468,136.882452508739
479,146.228530462846,148.17087951796,159.928851422906,139.929533685726,136.853635691594
480,145.851225919393,147.783062845977,159.523337025948,139.556950961134,136.50079782574
481,145.151739810268,147.061468977312,158.782029723869,138.883464336198,135.839358763097
482,144.200876677158,146.085787151771,157.764801979312,137.985333385849,134.944962547791
483,143.070774426355,144.937015210415,156.533112357087,136.939884349948,133.894458607613
484,141.86645145204,143.724272992519,155.19812529458,135.844786678138,132.789114485406
485,140.74066762419,142.597512629792,153.943176655607,134.82724754653,131.765652089915
486,139.849934681641,141.709895148335,152.9572740564,134.016795417173,130.963579587697
487,139.31996389048,141.184305420175,152.390583107695,133.519433078221,130.494171510822
488,139.155675074815,141.024893116821,152.240941178689,133.348901744571,130.357977421357
489,139.332381066219,141.206704919229,152.468848712747,133.496328547985,130.528407265293
490,139.818213235094,141.697635628884,153.027673873539,133.94517250941,130.972761782262
491,140.494219165815,142.378854974687,153.784297422787,134.585907656139,131.584260294946
492,141.183505655229,143.07383056632,154.548056136034,135.247140887193,132.206832403618
493,141.709047765268,143.605892582645,155.128238444317,135.75721544326,132.684323911031
494,141.962747962986,143.866545283103,155.408794722889,136.008818316379,132.921343519761
495,141.952257331644,143.861776498287,155.399053876942,136.002687863177,132.924538034057
496,141.696303468178,143.608529514527,155.120342855758,135.749902368799,132.710318750094
497,141.224104713512,143.134775155027,154.605317537049,135.275002450474,132.303033103647
498,140.613400253472,142.519487814066,153.939031338656,134.664793492197,131.763734049096
499,139.955947339268,141.856377231019,153.221675752477,134.024069673766,131.164079062665
500,139.341526050599,141.237051451896,152.551145725869,133.454299243923,130.575010421095
501,138.830277112891,140.721612731229,151.99091088025,133.007100346365,130.056740869907
502,138.459507189941,140.345891364798,151.577919678491,132.695686766839,129.661217158847
503,138.265673167503,140.144843573419,151.348190237445,132.532121753564,129.439877935082
504,138.252841547276,140.122615751186,151.307139841392,132.508526574333,129.407593476689
505,138.361757553322,140.2231229103,151.400362963864,132.578037109276,129.507745071435
506,138.525833038202,140.383304538843,151.566525871764,132.689274258066,129.675434715453
507,138.677814332612,140.538315777546,151.741073549381,132.789860596694,129.844391641901
508,138.746797041594,140.6135237151,151.841780608754,132.821942388389,129.940814781365
509,138.660631453462,140.530956590318,151.780394035591,132.725797844784,129.888334366417
510,138.350077417854,140.21581195822,151.472023193716,132.444017326659,129.613994044973
511,137.801026291719,139.653372821296,150.895563180402,131.963016883474,129.109534078609
512,137.048641555555,138.882621740337,150.086915670328,131.308380453483,128.424515378048
513,136.129962782567,137.944569675461,149.084159656473,130.50719728889,127.610611305665
514,135.11606656486,136.913422092662,147.966366770208,129.616958159061,126.738069886775
515,134.156000967118,135.939425914814,146.906513940235,128.764797155202,125.919689695155
516,133.409686125802,135.183431021874,146.090671924313,128.087559191836,125.27420240552
517,133.015080490518,134.784209021513,145.677806674446,127.705362841083,124.905880060639
518,132.966297900519,134.735923300061,145.649353142949,127.62877251279,124.824287036404
519,133.199558190146,134.974535903827,145.915294313633,127.824259694636,125.000870144773
520,133.650446164304,135.435297259725,146.385828690632,128.256633256342,125.405581469645
521,134.242797834045,136.039841751569,146.981286935616,128.852691833566,125.974098385708
522,134.888246027179,136.69566111405,147.632523733116,129.499753766604,126.606497970083
523,135.497902959982,137.30964040457,148.270915061538,130.08337116958,127.201257637146
524,136.011835108735,137.820169323971,148.847491958709,130.532220419174,127.691411836606
525,136.448325618749,138.250743815436,149.36638138952,130.891473225413,128.103346953057
526,136.838734380931,138.639088409142,149.840587223736,131.225777707335,128.47905652388
527,137.211786669598,139.019297761195,150.282452643475,131.592842063667,128.855869792739
528,137.575437123681,139.396849539889,150.699112140424,131.995661957369,129.234343918745
529,137.927797081306,139.763659689765,151.095231783631,132.411304525989,129.597609598942
530,138.266272828096,140.11104127168,151.474620513596,132.81622870393,129.928472055279
531,138.566772317718,140.412952205629,151.813054259958,133.171832002399,130.20238596361
532,138.779203662616,140.622361299171,152.052406143851,133.421296816534,130.3859163319
533,138.851925149773,140.690987193308,152.132527597625,133.506723236063,130.445100338442
534,138.753293685185,140.589621987362,152.01701720378,133.394685249795,130.359051166982
535,138.515734485472,140.350162212487,151.745550787525,133.130162328822,130.14877277275
536,138.184476265591,140.016715592596,151.37300755372,132.773802602455,129.843640619724
537,137.803864500166,139.632661766418,150.952655028803,132.383921368784,129.474055467686
538,137.409781817008,139.234404158813,150.522318297153,131.996481693345,129.080242040551
539,137.03340131233,138.85446396679,150.111228801976,131.63500773691,128.707892048761
540,136.705700383782,138.525149866385,149.74845079366,131.322815129862,128.402328726379
541,136.450821124527,138.270721477039,149.459531427047,131.079707211265,128.188720371715
542,136.283261673997,138.104081977591,149.265055575235,130.920531816735,128.063798617479
543,136.216792508665,138.037277681712,149.185233666387,130.859762853515,128.02214957385
