"wavelength","nadir","45","70","-70","-45"
319,13.7423949699363,13.0745612301973,12.4653448297305,11.8341346685999,11.2173528493944
320,15.7908355636998,14.9535358471193,14.2598225907214,13.5242282309252,12.8464258434414
321,17.6922679642347,16.7353580386899,15.945597581373,15.1229624675546,14.3790026973638
322,19.4566046406225,18.4200192401055,17.5274831750916,16.6316791881905,15.8187462699693
323,21.0938663886674,20.007585165404,19.0103842542672,18.0517973491429,17.1694072286544
324,22.6234893128267,21.5045775369172,20.4071592819492,19.3914411693358,18.442368198539
325,24.0814850964432,22.9288838302093,21.744668939117,20.6705394312496,19.6624478079538
326,25.5055510392656,24.2995473356882,23.0511978309716,21.9102213560427,20.8558310295123
327,26.9131884763696,25.6217631184686,24.3379700243997,23.1172332856856,22.0323321830702
328,28.2295720886075,26.8374185320047,25.5382166581298,24.2325696589848,23.1269264995343
329,29.3535084250616,27.8703204946131,26.5628943952897,25.1784464280643,24.0532154583684
330,30.1964236065973,28.6549767090442,27.3341400870084,25.8874680180444,24.7356264493626
331,30.8414602139053,29.2714976091221,27.926219986434,26.4335933336544,25.2458953848277
332,31.4956964272256,29.9050817593592,28.5231990734493,26.9928032535048,25.7620774552369
333,32.3672004527457,30.74166002303,29.3100247166814,27.7418401217326,26.4630925740728
334,33.519863675562,31.8361116364903,30.3443476906186,28.7343679867819,27.4054435321214
335,34.768347329317,33.0167744504682,31.4637684926191,29.8112925490892,28.4340177037689
336,35.9025522604493,34.0894800001719,32.4840261797848,30.792382503609,29.372679005294
337,36.7523704762305,34.896994496315,33.2554085947433,31.5313154810923,30.0783740639302
338,37.3278393918436,35.4484612201056,33.7838330975365,32.0345163430186,30.5570748999135
339,37.6896986394454,35.7998505488486,34.1190192280733,32.3514009064761,30.8566969718297
340,37.900424558496,36.0087722092295,34.3126357715771,32.5330921647158,31.026822295837
341,38.045806522115,36.154842824157,34.4425273109001,32.6536348065073,31.1394092293683
342,38.2283230487684,36.3334331348177,34.60527694648,32.8034825179947,31.2824347234602
343,38.5499427618299,36.6394465989968,34.89705128714,33.0726854236478,31.5434768674354
344,39.0417673169146,37.1020308790167,35.3471205377761,33.4895581799461,31.9494489536532
345,39.6128293295661,37.6370686410361,35.8695251979669,33.9760755003151,32.4227685726589
346,40.1600894171087,38.1492412275107,36.3669101439896,34.4436956264977,32.8755192292583
347,40.6112799366743,38.5721431606015,36.7711007174853,34.8302593254133,33.2456864271341
348,41.0329268454985,38.9697796680998,37.1455385374309,35.1926037441668,33.5880846727021
349,41.5306696378876,39.4429071245737,37.59075611272,35.6211004963236,33.9904521484401
350,42.1980317683102,40.0806434050163,38.195954562584,36.1957182671864,34.5306108807313
351,42.9642693177949,40.8143140601305,38.8967054035972,36.8553845050366,35.1519404990864
352,43.6403781086401,41.4616459344037,39.5179782952614,37.4374874855709,35.7010321332326
353,44.0361019153147,41.8391708657145,39.8835487160822,37.7783412348301,36.0234358883254
354,44.0745606092157,41.8729723956072,39.9212796948043,37.8116697907063,36.0561260435669
355,43.8761878599781,41.6797920909015,39.7401827601066,37.6407244542949,35.8951867039585
356,43.5811902446455,41.3954774477246,39.4674224160223,37.3857449325121,35.6526464440794
357,43.3289797660897,41.1544371867085,39.2297644549049,37.1663086665044,35.4406628063587
358,43.2553253097367,41.0844832521364,39.1521465786327,37.0989566131426,35.3719846499829
359,43.4949522686306,41.3115380840498,39.3589828720135,37.2993599938971,35.5595302040645
360,44.1707605794585,41.9504377564809,39.9638342904982,37.8730731767191,36.1063845390569
361,45.2409509785602,42.9616138764675,40.9291041896712,38.7847478916086,36.9786800909808
362,46.5429223137954,44.1922470385141,42.1063263915463,39.8956880397929,38.0420986753511
363,47.9116731732602,45.4872695552662,43.3448350786681,41.065143034572,39.1603333519566
364,49.2165310337776,46.723972543533,44.5257659621094,42.181638238259,40.2262668568411
365,50.3879810127638,47.8372950134428,45.5869098479424,43.1858547348985,41.1847839510359
366,51.3628219067657,48.7681273214711,46.4719063959144,44.0238579642531,41.9861378842315
367,52.0850269955856,49.4633611015355,47.1304080463179,44.6476199004583,42.5855776359347
368,52.5324876084603,49.8982595953327,47.5404932292379,45.0370362185926,42.9619699717476
369,52.6931086161409,50.0564621238753,47.688632509142,45.1802464386277,43.1011542776169
370,52.5628726662155,49.9296486492993,47.5687590174458,45.0723291754995,42.995798236345
371,52.2554699215837,49.6266689085442,47.2835505339045,44.8094787112965,42.7380730904149
372,51.9736234248939,49.344998776334,47.0179382880492,44.5643722868252,42.4954136577931
373,51.9208424973053,49.282938725116,46.9576088690697,44.5103814584493,42.4359637701295
374,52.1571019596806,49.5001630393838,47.1585815390283,44.6994902766474,42.611029615681
375,52.4773601252046,49.8003920125825,47.4374628604344,44.9595576316148,42.8561929112133
376,52.6479615473138,49.9597106558472,47.5850100721991,45.0942436813764,42.9837436613901
377,52.4798291874354,49.7968887092045,47.4316951603607,44.9444245638628,42.8416211107557
378,52.0041196843172,49.3415741210548,47.0041955206586,44.534837000618,42.4538848173987
379,51.3198809298519,48.6884220902865,46.3896726278362,43.946896262885,41.8988868024689
380,50.5273475684536,47.9331702434139,45.6764040494482,43.263244587045,41.2559985948334
381,49.7448848487567,47.1880794656214,44.9697332074626,42.5853284104281,40.6201849206383
382,49.1051604996457,46.5784451542321,44.3884660672203,42.0294280230829,40.0987113313855
383,48.7407034669813,46.2294208995603,44.0513105102784,41.7117630606269,39.7987565394676
384,48.720962461443,46.2068384381544,44.0214930891515,41.6930941742585,39.777138269917
385,48.9932565577597,46.4616764724299,44.2548229616885,41.9268078819324,39.9931703460324
386,49.4909260208745,46.9317677660222,44.6948144212197,42.3540007887348,40.3950064129534
387,50.1410298775448,47.548656589339,45.2783421085425,42.9106281212213,40.9248508183311
388,50.8377868326475,48.211008959227,45.9075664377515,43.5057643348525,41.4938030800496
389,51.4647185789536,48.8067815250172,46.4733404275802,44.0397280654946,42.0028310022488
390,51.9158991333103,49.2339944486113,46.8763078029384,44.4218640275786,42.3618036382483
391,52.2632668246154,49.5602977197783,47.1821518635895,44.7136520567016,42.6306348918715
392,52.7266199966399,49.9943559510768,47.5937546183078,45.1030431226582,42.9939721425419
393,53.5298883245871,50.7487834898773,48.3178236192281,45.7815298757016,43.6399436203511
394,54.8430682898687,51.9862002963725,49.5098436253234,46.895662349219,44.7105378386455
395,56.725438162929,53.7665940051403,51.2201453036075,48.4997289138682,46.253024149277
396,59.2226803016308,56.1373492641766,53.4861466680675,50.6366884445516,48.3030406337924
397,62.3417552004721,59.1076002778565,56.3105623849029,53.3150655029245,50.8641807148468
398,65.8727967983648,62.4722944522078,59.5017826040202,56.3505666174496,53.7606008663354
399,69.5305108083992,65.9518692691859,62.8005971140237,59.4918220209267,56.7540361919704
400,73.0333198562925,69.2708090878342,65.9513815234205,62.4910252616763,59.6096319290629
401,76.1702628667757,72.2303403278954,68.7665400287295,65.1679696568744,62.1571937702701
402,78.7928343549116,74.6995628430251,71.1186437522788,67.402236186448,64.2837154365961
403,80.7552350147934,76.5504162535074,72.8828193709102,69.0759240137973,65.8785930717258
404,82.0216905213062,77.7542807552392,74.0299483094315,70.1620529830452,66.9169431616118
405,82.7984588518094,78.5012853346338,74.7415527212946,70.833649714407,67.5624492945013
406,83.3240187483456,79.0106801046316,75.227196493559,71.2903669073512,68.0038982211862
407,83.814592660186,79.48156837559,75.6770925033453,71.7135201984043,68.4126618902398
408,84.3513970200627,79.9908435466897,76.1640709713448,72.1731931402835,68.8544745728196
409,84.9650131932106,80.5695632294928,76.7169368304594,72.6977508185151,69.3554502989749
410,85.682702522324,81.2456141533949,77.3615241121535,73.3126419459635,69.9390218049089
411,86.4639617905227,81.982068712163,78.0629803748298,73.9836868988075,70.5738469393436
412,87.2039649481572,82.6804768503989,78.7288489382961,74.6201062088093,71.1765906516235
413,87.7954756181374,83.2400800623996,79.2645095710249,75.1289981298303,71.6619653863565
414,88.1693036394465,83.5956211872705,79.6079666810561,75.4505473777824,71.9742146731884
415,88.346847280303,83.7663721288644,79.7749042766027,75.6037178728037,72.1278958569947
416,88.3626974455777,83.7839149861353,79.7923190550265,75.6189463624774,72.1478062727225
417,88.2523554355458,83.6807896591627,79.688893665779,75.5271806801475,72.0600127964637
418,88.0573710242338,83.4958994753213,79.5045118659937,75.3627642044264,71.8990168660961
419,87.8217599995384,83.2707421850784,79.2836241990787,75.1614247064324,71.7027587616278
420,87.5870621815453,83.0445169618213,79.0683072858785,74.9568836373863,71.5071347531194
421,87.3348796628678,82.8007578361919,78.8430139899704,74.7343374327584,71.2984605472902
422,86.9852648167471,82.4658366129816,78.5330236587095,74.4291524589138,71.0121378457971
423,86.4555643877577,81.9636116395659,78.0610099645146,73.9745051656739,70.5813282284508
424,85.7112800854825,81.2623285819913,77.3937765938849,73.3428151674241,69.9780538131727
425,84.8432057472156,80.4457223730643,76.6129470314234,72.608607013846,69.275446115494
426,83.9622521026967,79.6160708915885,75.8185802179053,71.8627992135955,68.5628707664812
427,83.1773869021118,78.8742628771308,75.1092262850127,71.1952341896591,67.928237248025
428,82.583286834726,78.3109696310826,74.5723377269739,70.6878395077459,67.4487447303483
429,82.2682501062149,78.0123021382795,74.2904138649274,70.4190101205885,67.1968120844654
430,82.3184572335719,78.0622985186425,74.3439124076376,70.4652586737502,67.2431146417532
431,82.7607394969933,78.4866824875227,74.7559165773346,70.850064202021,67.6094022223513
432,83.5555116149883,79.2459192589431,75.4853029386769,71.5375568711656,68.2626730706325
433,84.6596572821416,80.2970061922644,76.4875386821609,72.4887132643979,69.1670152488925
434,86.0068960028523,81.5757403332725,77.6997510680904,73.6454561340367,70.2680787410137
435,87.4644915122927,82.9570971261681,79.0064519120327,74.8950446772016,71.4586165086105
436,88.8878643627272,84.3052129057611,80.2827763517588,76.1149964163593,72.6219546551438
437,90.1490409866171,85.499776033719,81.4181471186017,77.1967486078721,73.6546459836531
438,91.2567196113799,86.5484731109303,82.4195784858448,78.1463024453522,74.5621033365962
439,92.2867714078582,87.521900707998,83.3518798994854,79.025966254969,75.4032432751119
440,93.3145922997726,88.4902521291558,84.2794926773473,79.8977317308097,76.236691553735
441,94.3832219661257,89.4948547620528,85.2404199063175,80.7992767420887,77.098316325999
442,95.4959750820932,90.5415962003585,86.2402054421737,81.7384281417934,77.9960453650027
443,96.65372802812,91.6341883054866,87.2824003048281,82.7211796248355,78.9360904607746
444,97.8477741631676,92.7664806521348,88.3612737680952,83.7436965467019,79.915015173626
445,99.0388375090958,93.9008626364188,89.4414868214046,84.7707923743811,80.8986057159124
446,100.181559836918,94.993464156672,90.4818094199067,85.7610426230961,81.8465246621092
447,101.233011843659,96.0025840052665,91.4430298481598,86.6752143948165,82.7206349441037
448,102.172877235166,96.9067131170242,92.3047267945819,87.4944782003441,83.5032845564503
449,102.993138052423,97.6953241469353,93.0566983167117,88.2111011702087,84.1879625217743
450,103.685917558683,98.3580681845885,93.6889089813173,88.8174767221068,84.7682677190543
451,104.244123790741,98.8875389668807,94.194081497395,89.3066577079124,85.2377355449812
452,104.661728370072,99.2803183297178,94.5686766176597,89.6725906947547,85.5898153602299
453,104.932779338341,99.5332726245671,94.8094217922471,89.9092865026537,85.8179510309122
454,105.066397166062,99.6571121256738,94.9264625327052,90.0242194540442,85.9287753090035
455,105.125565792667,99.7120203349517,94.9778957020739,90.0729776127413,85.9760533065412
456,105.185296465593,99.7692277544288,95.0325253399881,90.1218924795971,86.0240744375237
457,105.312707919649,99.8923975712359,95.1518434794534,90.2303462018445,86.1303539984532
458,105.490864586167,100.064601985472,95.3194701685675,90.3837111524343,86.2802637550389
459,105.652046297124,100.220221092028,95.4719761386069,90.5226438887111,86.4155872192565
460,105.728403563688,100.293526234035,95.5458259484908,90.5876963013299,86.4780195416626
461,105.683972022638,100.250205245235,95.5077802821843,90.548005299445,86.4378779066823
462,105.530761837156,100.103215375114,95.3701835315112,90.4157169602282,86.3085443602762
463,105.284745357781,99.8694178258402,95.1491448193816,90.206529462237,86.1069576494844
464,104.965705955172,99.5686344099487,94.8634843013527,89.9384687733176,85.8516708738983
465,104.608779446362,99.232613566006,94.5429433514474,89.6389382088711,85.5677404472283
466,104.252967043755,98.89610658463,94.2200130570757,89.3377020862502,85.2818601691551
467,103.93593113227,98.5927814466108,93.9262762418725,89.0636883022931,85.0200419445217
468,103.678828761436,98.3429508706015,93.6821184703599,88.8355131929716,84.799891141068
469,103.491703585802,98.1579351919057,93.5003859532548,88.6648501000056,84.6333528254861
470,103.384301102604,98.0487971372356,93.3936772845609,88.5631499797666,84.5321755945464
471,103.359529154477,98.019836310174,93.3665408530393,88.5348750410996,84.501269198132
472,103.408813688246,98.0639955728928,93.4100070177626,88.5727518794457,84.5340594882038
473,103.522481953152,98.1731310659501,93.5138126034614,88.6683841145378,84.6228734275585
474,103.688741577284,98.3365638085066,93.6660536507606,88.8115384562534,84.7582377532012
475,103.886129532804,98.5320484665692,93.8473402122659,88.9836008134108,84.9224657701186
476,104.09042633314,98.7340429106219,94.0361485848989,89.1635682876526,85.0955296818674
477,104.275783770603,98.915579995118,94.2094303684667,89.3290212061605,85.2560455034617
478,104.392813320166,99.0290974041897,94.3220998532431,89.4370628877392,85.3630279637049
479,104.374419003876,99.011540761946,94.312494466251,89.4293934747247,85.3607473490008
480,104.153493730336,98.7998804829819,94.1189347429185,89.2477028201333,85.1934589181653
481,103.708633512292,98.3748179489978,93.7218221353488,88.8733690067707,84.8428468377871
482,103.10450408688,97.7994102669107,93.1808063867283,88.362512414792,84.3610827355774
483,102.415294362173,97.1458267797269,92.5643056547783,87.7795232739292,83.8081373131483
484,101.71553738705,96.4858916770419,91.9404066603743,87.1886695373394,83.2443325098362
485,101.081552083768,95.8896380202883,91.3754761765347,86.6535846200003,82.7318129668855
486,100.590234890588,95.4265196556019,90.9353247792799,86.237696739837,82.3333127511593
487,100.314891431458,95.1628844498193,90.6828546796671,86.0016111986694,82.1087686025356
488,100.267097446708,95.1116945575958,90.6309791005514,85.9574101059018,82.0700270521059
489,100.406455360298,95.2409641708416,90.75052316504,86.076321594175,82.1884452036477
490,100.690868075885,95.517205352122,91.0109012700972,86.3282088372774,82.4340316941139
491,101.06497944443,95.8899558892178,91.3649230934788,86.6675668099546,82.762298522358
492,101.445304696708,96.2727432349807,91.7301719773424,87.0162873859757,83.0980035725559
493,101.744768692081,96.5744984391594,92.0197349313737,87.2921009395074,83.3619792361487
494,101.886264003157,96.7149623665349,92.1568965481858,87.4223995082292,83.4845173355848
495,101.851766404026,96.6779506063252,92.1253871647466,87.3918442343637,83.4519800731751
496,101.64493877811,96.4707980479762,91.9311243630172,87.2061174861369,83.2713108727568
497,101.270833298182,96.1021090165339,91.5812640614255,86.8720639258025,82.9504845350726
498,100.762666509721,95.6061050485502,91.10797577785,86.4199995779347,82.5182423543155
499,100.180233411962,95.0411824022504,90.5670341288211,85.9023901710787,82.0229227693249
500,99.5843544613682,94.466666502023,90.0151219289725,85.3725560342692,81.513623544521
501,99.0318613022697,93.9371821035573,89.5046117939228,84.8804977213586,81.0374753177472
502,98.5700151154143,93.4960755224587,89.077534763559,84.4682505608477,80.63688894746
503,98.2446713397288,93.1850364591902,88.7744028724071,84.1766799221979,80.3535820350748
504,98.0934080220868,93.0382811681581,88.6286431537677,84.0394685940934,80.2220282179028
505,98.0975212758945,93.0392103822831,88.6255083409911,84.0414615753898,80.2274459689347
506,98.2148765719433,93.1500699051885,88.7301958008866,84.1471722819804,80.3345484216848
507,98.4025991416431,93.3323281640654,88.9071058001499,84.3204375066341,80.5074219453928
508,98.6008726677056,93.5293720648314,89.1019608057458,84.5095172348552,80.6958644292579
509,98.7319442864817,93.6654450424993,89.2407085151206,84.646179800138,80.83454610271
510,98.7172503331754,93.6639198725735,89.2483941616908,84.6614446608531,80.8574519340245
511,98.5118495848863,93.4805978117468,89.08154432041,84.515035553981,80.725989926029
512,98.1623435221215,93.1595720630439,88.7823987669612,84.2448284004352,80.4762318649366
513,97.7307672910638,92.7598214329381,88.4076481161965,83.9018752087227,80.1568374967648
514,97.2792470826392,92.340332716178,88.0139620519768,83.5375591429688,79.8167578795584
515,96.8706223174668,91.960155286357,87.6578462881852,83.2058575864806,79.5072261623456
516,96.5680685900409,91.6783680129986,87.3957292530513,82.9619706825324,79.2805511355328
517,96.4335360989292,91.5529281476854,87.2829466684349,82.8600421708353,79.1880450114799
518,96.4895902198286,91.6057959963321,87.3397851615266,82.9200867388944,79.2488383909355
519,96.711990206335,91.8161519991231,87.5448779487595,83.1215590699207,79.4438162680238
520,97.073766740858,92.1606821816543,87.8744300588528,83.441549387638,79.7516340901017
521,97.5417688954937,92.6093027521484,88.2991560214981,83.8517773986918,80.1458713377397
522,98.0636995933984,93.11096193069,88.7727647793622,84.3073288398319,80.5843858249554
523,98.583566176456,93.6105607054883,89.245682864162,84.760078766233,81.0220007765831
524,99.0506761096978,94.0581866809925,89.6729668017374,85.1664842115918,81.4177419147302
525,99.4623878167651,94.4509493657357,90.051648681474,85.5245424633252,81.7687348352114
526,99.841639117825,94.8109898589782,90.4011058198946,85.8543643036157,82.0923871803463
527,100.211293667928,95.1603979389562,90.7406675369318,86.1760044865899,82.4060790422447
528,100.581330896517,95.5095331268073,91.0791015862093,86.4987134014665,82.7182656610152
529,100.944540355552,95.8531046680188,91.4110846897021,86.8173264687552,83.0254949167836
530,101.292515659018,96.184732909387,91.7303131474955,87.1256761622275,83.3234861228269
531,101.610690987508,96.491292529108,92.0242461888443,87.4114284016332,83.6014639205127
532,101.862770435452,96.7358599189779,92.2583390569312,87.6404938994321,83.8257401650447
533,102.007668470638,96.8762659827769,92.3931969967789,87.7739882043812,83.9575764007251
534,102.008933695278,96.8750797204284,92.3938322465584,87.7773544641828,83.9625152120908
535,101.878959348273,96.744810544355,92.2717075699361,87.661649522404,83.8512221420948
536,101.65941763984,96.5279036798831,92.0661295983171,87.4652724690387,83.6614108170595
537,101.392219241163,96.267032776524,91.8166307367001,87.2268400875969,83.431007146566
538,101.110605816355,95.9951654721574,91.5544445759939,86.9766001308408,83.1894900408441
539,100.834838716547,95.7307363597979,91.2983786929979,86.73226920033,82.9536905146531
540,100.584114424107,95.4909877818896,91.0662212688823,86.5105358768404,82.7394019845938
541,100.377568019007,95.2933035130527,90.8756194757309,86.3280164820821,82.5625078608777
542,100.234087942589,95.1556354268963,90.7436540860902,86.201037090502,82.4392530363754
543,100.172500718197,95.0960780168277,90.6872636793506,86.1458509107134,82.3859731532549
