"wavelength","nadir","45","70","-70","-45"
319,15.7122949253017,15.0573188311716,14.6435973793743,14.3628619859341,14.0837063814795
320,17.2658414229082,16.5180100013084,16.1089059609807,15.7518879672879,15.4788946437786
321,18.8654282355605,18.0367944682786,17.6107777661993,17.1961891650223,16.9169332740648
322,20.4932951376041,19.5937619032048,19.1338248162215,18.6771551262615,18.3814068694789
323,22.1318383380353,21.1691169042352,20.6628587382996,20.1762798246344,19.8560788579313
324,23.7655446899169,22.7445999920455,22.1853587606601,21.6764528238855,21.3271026204868
325,25.3803914066592,24.3030466025423,23.6907057679515,23.1615585640293,22.782335267444
326,26.9623027142149,25.8272532436147,25.168213034369,24.6154461137929,24.2095733356435
327,28.4906389134665,27.2951941386963,26.5988184567806,26.0175828544144,25.5891097061482
328,29.9336427279064,28.6766758188641,27.9492742269158,27.340014731142,26.8885280238681
329,31.2584810693751,29.9407144542828,29.1849598321509,28.5540695411023,28.0741821024411
330,32.4322840251084,31.0571010018076,30.2728598177513,29.6310137076832,29.1145929650121
331,33.4220208492347,31.9990103338416,31.1869688911539,30.5418456017205,29.987747019247
332,34.1946168986978,32.7405409159912,31.903195087135,31.2574904327929,30.6742141193204
333,34.724487081508,33.2622510077938,32.4038500425934,31.7553941166289,31.1602267024791
334,35.0819679007788,33.6274316798131,32.7532582431333,32.0965158004923,31.5045393388717
335,35.4037629848257,33.9566159492443,33.0724879867646,32.3995965428771,31.8160838863477
336,35.8269719229486,34.3706839398042,33.4829104975724,32.7837584029357,32.2040848244428
337,36.4218866032633,34.9332952084833,34.0462181231238,33.3125623473695,32.72677163927
338,37.1483729781353,35.6135298773725,34.7254604547287,33.9577328402539,33.3580845843027
339,37.9559465181255,36.3716029164282,35.4744410669272,34.6823862950018,34.0640632856587
340,38.7909094606098,37.1627042687087,36.244514199562,35.4440590469835,34.8052250185922
341,39.5858172720389,37.9205259374453,36.9765554122616,36.176414886325,35.518461480033
342,40.2695499424828,38.5730120181974,37.6086385782193,36.8067347968427,36.1343475921871
343,40.7811651843151,39.058215834361,38.0879163378125,37.2723122677606,36.593062269755
344,41.1877835932544,39.4413920273299,38.4757763660807,37.6364251689418,36.9556286372004
345,41.6440235212393,39.8747043383271,38.9116563471956,38.048429009115,37.3656354846224
346,42.3046913306567,40.5104941844666,39.5351288453952,38.6578683122731,37.9668355027605
347,43.2186232094957,41.3952075090211,40.3889283824624,39.5103227990361,38.802033718286
348,44.2607313830059,42.4014888951044,41.3568536646705,40.4807395503153,39.7483544098315
349,45.2897766324884,43.3858428673672,42.3079438282186,41.4282198516944,40.6675359179843
350,46.184078408472,44.2268338735718,43.130082016577,42.2335208978567,41.4436345240171
351,46.9054931411948,44.8972464399479,43.7916359621583,42.8698943787878,42.0560286058376
352,47.4381757036536,45.3950151643911,44.2824570685078,43.3352814479441,42.5095407736309
353,47.7700532627033,45.7204276967239,44.5954478160448,43.630147348062,42.8106579813543
354,47.9367802063876,45.9035412080134,44.7621126118925,43.7868909970551,42.986922599353
355,48.0067494786502,45.9948333151671,44.8404349102194,43.8598162631739,43.0803199910741
356,48.0493506588001,46.0456551033054,44.8892923737071,43.9040469102745,43.1336067257714
357,48.1597511393059,46.141647222714,44.9947847903786,44.0030229291391,43.2248862947944
358,48.4758262855943,46.4252603336198,45.2881128179761,44.2870978577302,43.4908239993606
359,49.1394669200776,47.0442864443737,45.9047175543706,44.891036104339,44.0735911952303
360,50.2496126433837,48.1025106766253,46.939431748106,45.9087462322245,45.0728100041187
361,51.7187135609176,49.5126450754875,48.3107711478064,47.2567452055136,46.4033584392051
362,53.4086178086737,51.1355560099269,49.8894097326398,48.8034166376467,47.929986136637
363,55.1823363235802,52.8336570788606,51.5470734656321,50.4186745589319,49.5192993889304
364,56.9180198792746,54.4895032475603,53.1691857971068,51.9923547274002,51.062070914055
365,58.5044107166659,55.9997398989582,54.650752611544,53.4282296648151,52.4659796826158
366,59.8308206668974,57.2616237454863,55.8873191541484,54.6306418711571,53.6393238158449
367,60.8139869291101,58.1974905750356,56.8011154976397,55.5260375683619,54.5115849321786
368,61.4172398907891,58.7722832277146,57.3597067926283,56.0784151774914,55.0482334716121
369,61.608436451272,58.9550838037623,57.5350624765891,56.255421302539,55.2182361754917
370,61.4023202345682,58.7596153429343,57.3425073699101,56.0679926086387,55.0329169921928
371,61.0241768430561,58.4000583020465,56.9920509964936,55.7214571410026,54.6938023256619
372,60.7583639612714,58.1468357794123,56.748325862746,55.4756836291456,54.4557839712463
373,60.8689591482265,58.2510787701561,56.8569926989743,55.572040470838,54.5555015577587
374,61.3427709515533,58.7001574234232,57.3043313668358,55.998959861705,54.9800517316705
375,61.9658312751947,59.2904468069806,57.8887982853841,56.5617172807904,55.5358315286272
376,62.5202709273528,59.8146122568456,58.4052169867873,57.0620284001735,56.0257463508144
377,62.8395438616442,60.114257179288,58.6978802007976,57.3483339133802,56.3005999246151
378,62.8478676602274,60.1175306666229,58.6985656278854,57.3517064815604,56.2959028989931
379,62.4787431195953,59.7614336185047,58.3479988449698,57.0116702819459,55.9558296633393
380,61.7118575833328,59.026959913674,57.6294092164834,56.309809135296,55.2649677428505
381,60.7449303363645,58.1027802380667,56.7266729161435,55.4262570097117,54.3986821728467
382,59.8399568961235,57.2387887968142,55.8828171800591,54.5996808357429,53.5885795628074
383,59.250648322858,56.6769422366609,55.3332205232671,54.0612140116792,53.0590191711286
384,59.1089758560436,56.5425558063151,55.2008641644886,53.9312847580432,52.9278606499481
385,59.4543864311861,56.8722953372372,55.5233054936293,54.2461835049971,53.2320221658688
386,60.3228652802883,57.6995224870009,56.3348896338036,55.0390463723836,54.0053628356148
387,61.6291595339655,58.9427624113742,57.556316796527,56.2320876456554,55.1724424104214
388,63.0615898612675,60.3060695472272,58.8960419097477,57.5403619947342,56.4536911781318
389,64.2836802181887,61.4700109314212,60.0392762162115,58.6562373527199,57.5471845317814
390,65.0406329693942,62.1926159153536,60.7475083369693,59.3465793417657,58.2241069682911
391,65.4893782928999,62.6223890065883,61.1667289749395,59.7537845366097,58.6241743011024
392,65.9162883469677,63.0305951282157,61.5638113900884,60.1383116602583,59.0029638955027
393,66.6073746834746,63.6883393510372,62.2053961455855,60.7604539150036,59.6158399248715
394,67.8420786796665,64.8634310094334,63.3536651439286,61.8771449579709,60.7140516678844
395,69.8945323240628,66.8210161378307,65.2671972231569,63.7426035821855,62.5455231376385
396,73.0369237491934,69.8244364134585,68.2027812937104,66.6093124546122,65.3564641367191
397,77.2998269070723,73.9040185098643,72.1897630734641,70.5061381930735,69.174778718342
398,82.2306015471626,78.6240727478055,76.8026152232299,75.0147284209065,73.5917722296017
399,87.3190894494486,83.4934385736008,81.5616659385397,79.6634973748064,78.1467807854783
400,92.0901861848228,88.0551630232315,86.0205941356173,84.0141279259478,82.4115010910391
401,96.2603275230541,92.0392095362166,89.915313048533,87.8100887295654,86.1344539180341
402,99.6110435219692,95.2390644589434,93.0436676272551,90.8566277241034,89.1242530985721
403,101.940149804681,97.4636962611471,95.2186509235179,92.9737069294136,91.2039218477891
404,103.339439282599,98.8015229640935,96.5266798057257,94.2468538833783,92.456555657336
405,104.156370855501,99.5839941041916,97.2919622000163,94.9925529812564,93.1914295173165
406,104.746432623111,100.150188847922,97.8461716911323,95.534533836003,93.7249159558087
407,105.37245664663,100.75058662277,98.4343949469351,96.1113247952849,94.2903593814784
408,106.09614396246,101.443340952956,99.1137620206477,96.7765054643568,94.94087276842
409,106.952828060534,102.261392135675,99.9167625363253,97.559409340424,95.7059414045948
410,107.961890674311,103.222618521093,100.861056143004,98.4756268042632,96.6014143026322
411,109.046837333781,104.254370353586,101.875168625104,99.4581468109829,97.5611812056593
412,110.09552139395,105.250334426626,102.854480773567,100.409242451113,98.4886547820711
413,110.998609168661,106.106901561984,103.697016262355,101.233521818227,99.2896268682412
414,111.706735241668,106.778087381885,104.357128989144,101.885411083046,99.9206210380648
415,112.227297042419,107.27245214792,104.842492111965,102.366491617362,100.386180889906
416,112.569947017242,107.600718818234,105.162895445262,102.680228788378,100.692761824284
417,112.751443332727,107.779202764584,105.334345070027,102.839129233019,100.854040691187
418,112.805507640376,107.837570126905,105.387687159459,102.877283810071,100.900934105852
419,112.768339319356,107.807437090644,105.355935466543,102.831936022006,100.866876765353
420,112.666846047807,107.711872309571,105.263416823156,102.731310022439,100.776674903018
421,112.465607934453,107.516608663055,105.076187279887,102.543129299907,100.597256095569
422,112.103572334362,107.163799195811,104.736338522978,102.210235919547,100.271744820058
423,111.521891987837,106.59778150239,104.18811278575,101.677533861905,99.7453647580265
424,110.718279012071,105.818780004542,103.430826605763,100.942876980418,99.0171303993331
425,109.749331556236,104.885204939964,102.521136389218,100.059247174125,98.1420598080146
426,108.674484462452,103.858261717456,101.518453254666,99.0822780712812,97.177859487609
427,107.601279837938,102.842369258159,100.524873118682,98.1104593735082,96.2227750110576
428,106.765200003456,102.056871868935,99.7560111794301,97.3562555670511,95.482864714831
429,106.422761081464,101.740007976837,99.4461455870241,97.0508689763317,95.1819117165706
430,106.796154486777,102.09820405537,99.7981923090671,97.3944934233193,95.5139137085976
431,107.846789156726,103.096194787148,100.776792664472,98.3517351707891,96.4465731707682
432,109.416352727522,104.587757799872,102.237199675666,99.7790457872814,97.8437038648979
433,111.345734099307,106.425813268054,104.033886152148,101.532157387964,99.5682664235201
434,113.470647526284,108.454928047886,106.015066440405,103.462191571277,101.473873384709
435,115.620822028852,110.510007162873,108.021716060383,105.414937199678,103.403324849963
436,117.625695294245,112.425458114832,109.894446317836,107.2359242671,105.198857356515
437,119.376240200125,114.095433202263,111.531045067959,108.826533261837,106.759688889496
438,120.948038322351,115.593322149647,113.000832719689,110.255698993303,108.155984673233
439,122.451145819481,117.025986210845,114.405162372012,111.623646049551,109.489833318072
440,123.988119781246,118.492926344612,115.838664639715,113.023754660346,110.85629612882
441,125.595985356439,120.02932426753,117.337224518927,114.489594418572,112.28902505639
442,127.277914221387,121.637134697818,118.906379313409,116.02383704166,113.78994828704
443,129.035985461062,123.317274246919,120.550591828096,117.628155752987,115.360024339375
444,130.840905799101,125.041195754402,122.242517375524,119.275540322076,116.972913196928
445,132.622683392921,126.742129458179,123.913548217559,120.901770203495,118.566861148187
446,134.308613774841,128.350758063107,125.492326391356,122.440144773853,120.077754085673
447,135.840811719126,129.812223535897,126.922720217612,123.837925393292,121.454239056089
448,137.212147489206,131.121190410685,128.200747612269,125.090192825031,122.688669702276
449,138.426348667861,132.282916801502,129.333582029697,126.202257081165,123.782749128184
450,139.485873958585,133.301146159594,130.326830489063,127.177898444124,124.737156065205
451,140.380214969569,134.164143098403,131.170092092383,128.005264385149,125.542100844211
452,141.091273210451,134.851111921278,131.843595942762,128.663351939327,126.181666271767
453,141.6018600153,135.342154482215,132.328419367325,129.132028507184,126.64075368952
454,141.947174909942,135.6700882122,132.655989257699,129.442520124722,126.950935171934
455,142.23935071691,135.945144611869,132.931672029956,129.70147419694,127.21231986671
456,142.596663270244,136.28373658244,133.266738063381,130.021560415206,127.530489506861
457,143.099016127578,136.764516838715,133.736450241755,130.479124509606,127.976793632676
458,143.674647584893,137.31689210103,134.273752912176,131.006942852164,128.487280078309
459,144.214330178683,137.833400960049,134.776433576944,131.502325980598,128.964573195668
460,144.614015463997,138.211857571946,135.147195861557,131.867549042682,129.31596336671
461,144.832701402348,138.414297806674,135.348589460453,132.065323506291,129.505542551493
462,144.871451673619,138.445607439151,135.38309446257,132.098685060202,129.535301764465
463,144.732504161363,138.311803422582,135.254282196128,131.971753715665,129.408275159299
464,144.448697522328,138.04520398834,134.993018941852,131.714887313174,129.153959457929
465,144.10420668432,137.72225074783,134.675961362016,131.402460630487,128.846245344774
466,143.788112814848,137.423602211634,134.384142334448,131.113055171733,128.563266263163
467,143.575598788758,137.21773595597,134.186005869692,130.91319355017,128.370893172193
468,143.477889390743,137.117074520882,134.092063689166,130.813904970736,128.27856671316
469,143.487823259265,137.117926205209,134.096173615832,130.810265849325,128.279505403272
470,143.59866924948,137.216857279184,134.192633804403,130.897737908843,128.36741429375
471,143.810092818444,137.414276298558,134.382286563378,131.077511067384,128.543226380098
472,144.12665045435,137.713529744302,134.67097805492,131.355155190615,128.813401357943
473,144.552889295328,138.11791714534,135.064550929516,131.736223726433,129.184413169673
474,145.077472542983,138.616270217891,135.553319073409,132.211087127376,129.647744736558
475,145.658343476354,139.169439573788,136.097563362183,132.74075156083,130.165885977588
476,146.249933794868,139.735077318241,136.654131612377,133.28286657683,130.698012635572
477,146.797811160494,140.261940889221,137.171441533171,133.787004469746,131.195005295506
478,147.199635139304,140.650714081828,137.552348030804,134.159081813754,131.562911110917
479,147.336953487849,140.785913207097,137.684382939528,134.290333475589,131.692699455797
480,147.097621892348,140.558205082827,137.461087512847,134.077752323012,131.481164156863
481,146.486311630033,139.97216316077,136.887290162612,133.524962417493,130.932963975207
482,145.610558197681,139.132663574041,136.065815352316,132.729483972765,130.147740218295
483,144.581451340505,138.148042982689,135.102868417453,131.792085443549,129.228407002851
484,143.518607979971,137.133803887417,134.111639375536,130.822170783573,128.283745446328
485,142.560832476185,136.221573016201,133.221034836966,129.948575127821,127.435738306815
486,141.849550698135,135.545180090637,132.562108712184,129.302788421811,126.808172033808
487,141.507430915894,135.220653879255,132.248334976596,128.998446003935,126.508322355463
488,141.536923776821,135.249936679813,132.28051764142,129.034752872492,126.537647636129
489,141.893044337603,135.589954435503,132.615003289905,129.365761986913,126.855852718145
490,142.528289824231,136.195261486991,133.205899366233,129.94345313157,127.42044902024
491,143.338008142712,136.966601405014,133.956621603624,130.673103235649,128.139186926738
492,144.159321231152,137.749893238113,134.718939032663,131.412406528361,128.869118329089
493,144.826811409898,138.388663705148,135.342367233977,132.01698307699,129.465082030351
494,145.216386352569,138.76478183728,135.712654214433,132.376878992086,129.816947339323
495,145.313133528756,138.861415396401,135.811272483926,132.473092501538,129.907132645863
496,145.119962575875,138.678267831833,135.635320320314,132.301468571911,129.733163761858
497,144.649204050125,138.224483296979,135.191500162594,131.867306164237,129.301697229438
498,143.985573680158,137.581743137083,134.560307556014,131.248543547454,128.689545113614
499,143.247342274502,136.86535424781,133.856445791554,130.556791878138,128.006040976475
500,142.551881061027,136.189749852689,133.193732343135,129.902810918645,127.359699795597
501,141.982052698978,135.635667713778,132.651800814757,129.364366446247,126.82728853957
502,141.579851771478,135.24394046988,132.269801271003,128.980149864873,126.447975397902
503,141.384895983286,135.053079940494,132.08452977925,128.786580679419,126.258741906931
504,141.413346077718,135.078815821618,132.110716007063,128.799140974667,126.275178416293
505,141.607961101614,135.265587820637,132.294039281209,128.967795306194,126.445937816683
506,141.897181474233,135.543928952773,132.566709129236,129.229727583552,126.706615364003
507,142.208535850921,135.843654495644,132.860204604392,129.520881338658,126.991962751026
508,142.461046180241,136.087883274853,133.099189475222,129.765627448886,127.228861273331
509,142.569099945717,136.196085880133,133.204614534198,129.882031994188,127.339904423745
510,142.448179282156,136.088754009325,133.098440677333,129.789186035708,127.24866065374
511,142.065064810463,135.733926495619,132.749710530104,129.455102109348,126.924460088455
512,141.457489400792,135.165405832213,132.192586663202,128.915457295049,126.399926995285
513,140.668388265911,134.421816433629,131.466006360144,128.210889934617,125.71232647916
514,139.764585987532,133.565265012648,130.631267893452,127.403006181625,124.920294432685
515,138.902112724118,132.745543811341,129.833167970686,126.631708345013,124.162267660952
516,138.257816296987,132.132908005288,129.23598910212,126.055170494571,123.595305890983
517,137.994742602991,131.884352262749,128.991308203803,125.819350123409,123.364312778315
518,138.117161914718,132.004324023273,129.104538614409,125.929666744326,123.474350042411
519,138.527696881399,132.399610501044,129.487520239468,126.301567925394,123.840953063205
520,139.127494928312,132.975582075037,130.05070243372,126.849158318558,124.378336343317
521,139.830239491719,133.649688779179,130.713858013675,127.495105866407,125.010284563347
522,140.569963953975,134.358989782014,131.411894749427,128.175979464802,125.676117856605
523,141.282564245225,135.042338996417,132.081105651807,128.829620307315,126.316578253196
524,141.917385318127,135.651412642343,132.671609332196,129.407299121526,126.884966999626
525,142.4839799533,136.195289123286,133.195418073316,129.920407217938,127.390809736353
526,143.008742377061,136.699103488353,133.681857170833,130.397152948404,127.859359295958
527,143.516988170442,137.186990386413,134.158920347198,130.864471542188,128.314827007567
528,144.018433670534,137.668616494893,134.635346640331,131.33088856581,128.766362461973
529,144.511063278984,138.142767367269,135.105393955823,131.791083980483,129.211787563676
530,144.992418594014,138.607805926486,135.562837445091,132.239270439098,129.648504541897
531,145.442025452942,139.044011921243,135.986557996825,132.654759404252,130.057426309389
532,145.804908688115,139.397034995638,136.326913306311,132.98832587853,130.387887984742
533,146.022196492984,139.608613574006,136.531039580509,133.187521877822,130.585658203164
534,146.048053628967,139.633359535461,136.557686436338,133.211522226981,130.608475600257
535,145.906867928015,139.4952292005,136.428160546308,133.08210943531,130.478556685273
536,145.646567607539,139.241424738411,136.184739144177,132.842053545318,130.239732431022
537,145.314835196538,138.918888838608,135.869645831426,132.533960202963,129.935584651866
538,144.954471026488,138.569429736871,135.523824866535,132.197097607843,129.604774478047
539,144.603962842185,138.230320257163,135.1870904272,131.867785896383,129.281616456807
540,144.301631594213,137.93865810009,134.899191495745,131.582226142526,129.000262036199
541,144.081544465711,137.727133891988,134.6938172352,131.372551054925,128.791728302964
542,143.96810778997,137.618429229935,134.590894184024,131.26165356439,128.679913808465
543,143.984393943394,137.633843677992,134.60844855637,131.27115078589,128.687734186471
