"wavelength","nadir","45","70","-70","-45"
319,31.6283784414442,30.8477275853856,29.8503772669947,28.6108446646028,28.067052519654
320,35.9567665236645,35.1811429697011,33.9291366313952,32.7841294021873,32.0320867692732
321,40.1213471247285,39.2580195232164,37.8390642856677,36.6649740029558,35.7548744023076
322,44.1090356494068,43.0868704246166,41.5720811248653,40.2717741804557,39.2458897165423
323,47.9069119085375,46.6764013298362,45.1202566821604,43.6231155846692,42.5157871153154
324,51.5163452052485,50.0520472176326,48.4885794984823,46.7540923513174,45.590875028328
325,54.9638613845729,53.2686949116646,51.7047819291252,49.7288616790255,48.525020678987
326,58.2785445297838,56.3842262750576,54.7989092106949,52.6145362695705,51.3748938205613
327,61.4588275695174,59.4206385467387,57.7732951330582,55.4428178990685,54.1635861076016
328,64.3630204622258,62.2358809815962,60.5035895072534,58.0835258912659,56.7606855834184
329,66.8094145934704,64.6410513711339,62.8292616948589,60.3602465739098,58.9919402596175
330,68.6423493571696,66.4727398889754,64.6131693890676,62.1193902135424,60.7059034899071
331,70.0605882835649,67.9144087484309,66.0364055932059,63.5179344025509,62.0614404334539
332,71.5186989642812,69.399873531666,67.5097482458654,64.9370073346567,63.4413824300437
333,73.4730614357991,71.3647659273299,69.4454741028353,66.7594613241418,65.230254566382
334,76.0635064604823,73.9383854355895,71.9610747139665,69.1019333533986,67.5442079111643
335,78.8826643357785,76.7204927780959,74.6644634530428,71.6208693215069,70.0354708536361
336,81.4688023725134,79.2582403338946,77.1129283867724,73.9269963036243,72.3101822344518
337,83.4471671008145,81.183560700592,78.9494464720153,75.703400186601,74.048405454387
338,84.8348143060189,82.5102900449176,80.202991464633,76.9591165765976,75.2632067518508
339,85.7590751232506,83.3597519119874,81.0111765450557,77.7949201564606,76.0613765535197
340,86.3512581403886,83.8584777144017,81.5148435879436,78.3163541548744,76.5539289085195
341,86.7960684020678,84.2029407415937,81.8981648198548,78.6930085236377,76.9085964331345
342,87.3164359750637,84.6396837061927,82.3763314480301,79.1403224629415,77.3337149712251
343,88.1341867742591,85.4142069985197,83.1632970445678,79.8728903126697,78.0367236453486
344,89.3140077761856,86.5989936569125,84.3177495841436,80.9557752442816,79.0805750302513
345,90.6499126102704,87.9685026509473,85.6309305422683,82.1964715397015,80.2793422191347
346,91.9091467085148,89.2677199075244,86.8676323156379,83.3770012466652,81.4224854086276
347,92.9327406550184,90.3179809151125,87.8644999471832,84.3452625760742,82.3633778829977
348,93.8945273699884,91.2849900728351,88.7822643947141,85.2462831798052,83.2436680641157
349,95.0621270700249,92.4314986619679,89.8729875306944,86.3088249986036,84.2862434243028
350,96.673172508713,93.9912289588432,91.3609166770645,87.7359446564329,85.6887728639454
351,98.5587334339867,95.8043299591115,93.0931926427329,89.38218953274,87.3070159619079
352,100.257184548918,97.4276072468378,94.6454676697302,90.8512063408,88.7505830832536
353,101.303726150941,98.4147772179455,95.5904156015678,91.743950146853,89.6264512116484
354,101.507828341706,98.583704395085,95.7522589310365,91.8989542234497,89.775287815595
355,101.156285970125,98.2119628128247,95.3930021947254,91.5682204625059,89.444462996907
356,100.583726819835,97.6231942095391,94.8185202712603,91.0451846384134,88.9221027172678
357,100.119202167577,97.1371181582594,94.3336684139424,90.619509801586,88.4926018015452
358,100.066195041995,97.0554711292586,94.2386269005486,90.5635610873744,88.4232478364133
359,100.720864998771,97.6748387210589,94.8322369629921,91.1447490166084,88.9764284093008
360,102.353313835608,99.2656426064881,96.3870668666667,92.6070179964331,90.3916900290839
361,104.870729329219,101.733909288307,98.809766666469,94.8674911243217,92.5904630806874
362,107.914112784262,104.718392419109,101.738596462978,97.6035779392074,95.2608493812696
363,111.119134860299,107.852542581821,104.806488234348,100.487877450922,98.0862327727516
364,114.193347842149,110.846437616883,107.723060856051,103.256816248817,100.808913477945
365,116.972362648791,113.546668443034,110.334552531423,105.760531103758,103.276152497047
366,119.305010479092,115.813919063136,112.501305516716,107.860897787541,105.346046576421
367,121.057001757839,117.523138105474,114.102358291604,109.435143438091,106.892939520442
368,122.173845049802,118.616711566729,115.105137503606,110.433070231371,107.867984639768
369,122.624607526474,119.056934810401,115.503164419562,110.825906491618,108.24501152488
370,122.397276646766,118.82510519599,115.305740294868,110.602192709854,108.01478896674
371,121.755541745325,118.17942059288,114.752094839259,110.002738383237,107.414916332226
372,121.171630514635,117.58752386412,114.25537352623,109.459166960177,106.869693360967
373,121.119642095011,117.519001615786,114.230112680039,109.40480342839,106.805076848953
374,121.740501571382,118.115327869993,114.795751722239,109.967015685916,107.346870798836
375,122.559974436909,118.912162360676,115.526874653437,110.708264383835,108.066688792882
376,123.037407572116,119.379755219001,115.939237583666,111.130017292498,108.476308625453
377,122.734003180925,119.088391665537,115.639824843771,110.829398287731,108.181212888568
378,121.714166103633,118.102566934018,114.68632161843,109.876107472661,107.249820225599
379,120.197423040125,116.639125969261,113.275350270927,108.485525632264,105.893258192716
380,118.406921847894,114.918078561833,111.607164312954,106.874987932547,104.324426600048
381,116.621360749254,113.207911264381,109.937793723363,105.291539056844,102.783119677144
382,115.16325934092,111.815351932701,108.567268218149,104.005660292131,101.530347543429
383,114.355041609686,111.046948650566,107.795644000127,103.287401295,100.826669879498
384,114.365296804185,111.063477093849,107.783171564532,103.279012087011,100.809812431517
385,115.064774754492,111.743482996547,108.419423592521,103.875309831298,101.379682179582
386,116.290134952606,112.933208396318,109.562991311431,104.942790826565,102.40896565669
387,117.864988610734,114.465215707462,111.05669177124,106.33416736322,103.75663374462
388,119.544726361671,116.100545898802,112.660869578368,107.830084528397,105.209947514515
389,121.06251748586,117.576943402338,114.109005755785,109.18771310381,106.532810144889
390,122.175865052371,118.655985252741,115.158357035041,110.186122465186,107.510281787403
391,123.052406967859,119.500950128769,115.966956076132,110.973504641364,108.284050713824
392,124.200729485985,120.609054475471,117.026003750586,112.004906253597,109.292272983832
393,126.1389834438,122.486885945961,118.836044852033,113.744003441443,110.981466653916
394,129.266652850568,125.525296247072,121.781306422103,116.550857476895,113.701707790992
395,133.739613318761,129.877545427963,126.007229469192,120.572821057491,117.60508892352
396,139.683825973992,135.667717891077,131.629932688728,125.931126812914,122.819390708789
397,147.129076523618,142.924809678257,138.674002009653,132.657692352354,129.383158440799
398,155.566607772872,151.145361006275,146.65147740482,140.284307796994,136.835255973222
399,164.300317690344,159.640684788427,154.896097660603,148.168782138248,144.540721198157
400,172.644003237065,167.73241535074,162.751537306281,155.678507511261,151.874258766978
401,180.09927435449,174.93782449182,169.749798063003,162.362557628406,158.393808681027
402,186.333849527397,180.9472128154,175.589444982315,167.930691912245,163.819370864233
403,191.022428882914,185.458047842913,179.975949762102,172.099339566065,167.877634028308
404,194.089403915559,188.406882331856,182.846433998823,174.809768923552,170.514481306172
405,196.008435714113,190.256207328963,184.647601366721,176.4978481086,172.157978423037
406,197.326307368693,191.538529881657,185.893994105581,177.665289280339,173.300382088877
407,198.539959620293,192.736890115336,187.05271747456,178.766534877353,174.386598863881
408,199.84399098794,194.03426326315,188.303125405256,179.969290605413,175.574310694035
409,201.319604164241,195.501082862243,189.71664843247,181.333719305222,176.913473676509
410,203.040161761496,197.2003012079,191.357414388991,182.913111165898,178.447815651598
411,204.91877387664,199.042113997025,193.140368200341,184.620580869934,180.094413793374
412,206.716437233321,200.791718756476,194.838848807192,186.236187034419,181.650127131277
413,208.188423180946,202.208872327444,196.220875009768,187.535006242857,182.907312433007
414,209.172621509583,203.13698703057,197.134207521077,188.371945556229,183.730187382664
415,209.703637360717,203.618659737863,197.61647336328,188.7919892181,184.15407124059
416,209.844724061669,203.725495103397,197.732950299925,188.86780292349,184.239201249977
417,209.663839067698,203.532216085264,197.552343656909,188.673855981526,184.049131011411
418,209.260193061179,203.134262991277,197.166130756575,188.296600530485,183.669447299782
419,208.745738929341,202.635522767841,196.675073256683,187.82737420937,183.194720001374
420,208.226469690496,202.134193500962,196.174532743951,187.352395333675,182.714469205098
421,207.663619971846,201.59056113365,195.628869743932,186.833969807221,182.195689911407
422,206.869772812927,200.823290395406,194.867920520208,186.107158566638,181.479556788069
423,205.650968613013,199.644816771665,193.715602909958,185.001429926246,180.40170735884
424,203.925626446084,197.976548489138,192.098700051252,183.44622221943,178.893195297612
425,201.904558148959,196.023424800146,190.211635447263,181.631081047723,177.133333050072
426,199.845522113435,194.035908672279,188.291804913452,179.787314811594,175.341293467364
427,198.003349014224,192.261267789761,186.574102280447,178.142982400444,173.734057189267
428,196.611335494388,190.923267793707,185.27501870573,176.902241803348,172.51248063742
429,195.893166981397,190.235184733375,184.602831740439,176.258583396859,171.870223562667
430,196.067069552145,190.405136332389,184.760832955126,176.400882557019,171.996370271276
431,197.197369757873,191.496011934972,185.811684521491,177.388251878812,172.95091002102
432,199.176168222568,193.408178667046,187.660673021458,179.134588985335,174.649364344151
433,201.886420138982,196.033369990347,190.204723177378,181.546072673961,176.99957648052
434,205.161659468103,199.213260016083,193.290727166152,184.479697045868,179.861250953766
435,208.693635547902,202.645907532849,196.622038743184,187.651350176358,182.955987074691
436,212.148830064746,206.0037774259,199.876431465203,190.751773422949,185.980772215734
437,215.231845119087,208.996804317015,202.76888589368,193.507178814471,188.667405771819
438,217.961026217696,211.643310946315,205.32060834042,195.935713541232,191.03420140527
439,220.508920896292,214.113190007567,207.703312286676,198.199008268617,193.240291933384
440,223.047078889697,216.575349369783,210.087594105418,200.457722318066,195.443800509869
441,225.675974452419,219.128695271343,212.569756949365,202.804905961645,197.734560296947
442,228.408819743125,221.78619026127,215.154891332547,205.250603245923,200.118562212569
443,231.253468856427,224.555519635181,217.842489109041,207.799761939355,202.596650657567
444,234.191102562333,227.417693554492,220.609788135361,210.433288172852,205.148489944818
445,237.117815121042,230.268629898294,223.36303718024,213.055396511523,207.686181014867
446,239.912771492175,232.987316096565,225.994360615869,215.555042526168,210.108382011737
447,242.462268583792,235.460243798483,228.401824017325,217.828091085069,212.319750414048
448,244.71900088551,237.643768030738,230.53880484345,219.834731784495,214.280796783429
449,246.671773946597,239.532239791164,232.388762533292,221.570137936005,215.982407998915
450,248.309767243282,241.120342183877,233.935599380324,223.029758804847,217.415740578501
451,249.62271932242,242.400718782701,235.169310850388,224.205888151384,218.570497563554
452,250.601126425819,243.363249035182,236.088150339054,225.086543156219,219.434412133584
453,251.235540448847,243.99761727698,236.690960465342,225.659438171991,219.9950787959
454,251.552660455081,244.327604364482,237.007204892616,225.944993210276,220.272248567532
455,251.70836255649,244.49883992192,237.175775942773,226.080506608022,220.40058832802
456,251.887367129615,244.684161488101,237.360000535175,226.229374754282,220.540424805791
457,252.254370037626,245.037745144035,237.705472910505,226.537543211918,220.835082065171
458,252.760808501829,245.515024705594,238.168936429506,226.965108358643,221.246807857288
459,253.229271436684,245.951356302065,238.59303302231,227.35987872946,221.628445802396
460,253.48213711486,246.181900622513,238.820212082967,227.569430622328,221.83258296324
461,253.429195045293,246.123327440295,238.76999703896,227.514818072265,221.78171775062
462,253.111754139199,245.814945522389,238.477877310709,227.22765010095,221.503537554477
463,252.581985416329,245.306192316686,237.988919880427,226.748666400087,221.034417259439
464,251.897508349967,244.651218198041,237.353672432785,226.124728178503,220.4178619942
465,251.137891153635,243.923159260675,236.644761305402,225.427356778087,219.726100611333
466,250.388228232372,243.199931769338,235.940371736466,224.734282399041,219.038593941084
467,249.731213192321,242.557616062387,235.31665107523,224.121040644536,218.43238155491
468,249.219942106628,242.049658807197,234.824623165002,223.636111682765,217.954653257362
469,248.887582397077,241.71426693687,234.498395655738,223.309758679475,217.63250036715
470,248.766614429204,241.589005338675,234.371446436705,223.171616370174,217.492371441251
471,248.865791882923,241.684519285642,234.453610336409,223.229601738766,217.540559064598
472,249.154026219112,241.966250216422,234.715020388469,223.455162983308,217.749509600772
473,249.596416414151,242.395314034543,235.122010579133,223.816258619705,218.088430683256
474,250.152546830449,242.929273464046,235.636296146463,224.277030115368,218.523488981551
475,250.756841704843,243.509480041271,236.198519541752,224.784203862065,219.006976932816
476,251.336553801172,244.072664574631,236.743316770857,225.279542375511,219.487232356322
477,251.816114816241,244.552222534524,237.202473354073,225.701691011989,219.909046440004
478,252.079185415057,244.833341814861,237.466577288098,225.944241702819,220.165947825529
479,251.978757554288,244.764947697649,237.395227046437,225.866896377299,220.112904539074
480,251.368083382517,244.196093932087,236.848198547925,225.329470357746,219.604892761894
481,250.209899397658,243.085841251553,235.7866213053,224.293864581931,218.599925671366
482,248.673126949816,241.600419486289,234.362497553357,222.914231278896,217.250059410314
483,246.949500679202,239.928980658237,232.748948608797,221.365994291164,215.728819974551
484,245.228555328768,238.258024557117,231.119521876752,219.821893160388,214.207474797704
485,243.688409564408,236.760287562861,229.649975892143,218.440737602438,212.845570802447
486,242.503490319289,235.60405524186,228.516784225379,217.376832704014,211.798864730849
487,241.840135882197,234.94993708236,227.888113465626,216.777234847629,211.215663230567
488,241.725675474323,234.826631955308,227.789329817298,216.664436678195,211.116241191916
489,242.07039999075,235.151776927479,228.125569068999,216.956054722869,211.413077497184
490,242.780722116712,235.839309514692,228.798039122425,217.566252019942,212.015132280794
491,243.724498166264,236.763278942052,229.677894013392,218.37833959863,212.804915839337
492,244.687788449948,237.713112810088,230.572529544159,219.210177021497,213.608826056278
493,245.446212736584,238.467437511879,231.281203338231,219.871269546013,214.24609855818
494,245.804471500715,238.832978741442,231.627947261621,220.194083775573,214.557394261367
495,245.739639878271,238.783019618511,231.583641461921,220.147188726822,214.510371587033
496,245.292064934141,238.351979914364,231.173068290014,219.74911123592,214.119304723692
497,244.504186554961,237.576661737862,230.423579337943,219.021011306292,213.401243909767
498,243.459900962781,236.541403762681,229.414173685441,218.03714908998,212.429412823453
499,242.282226333651,235.375404471822,228.272589660841,216.921894850091,211.330045489982
500,241.095680076608,234.209570738964,227.12842697523,215.801533971737,210.231397005232
501,240.015831853357,233.161307448822,226.098202689362,214.789319776123,209.246457488318
502,239.136782756212,232.31562380302,225.267044311265,213.967237405097,208.45159139149
503,238.549480501944,231.752770616491,224.715468746088,213.412679225355,207.917783466093
504,238.325890387452,231.535933744588,224.506919536817,213.186583427459,207.700671657741
505,238.408907190156,231.612266249541,224.588750300163,213.238008416592,207.751543665785
506,238.687692543857,231.880615765184,224.859985439425,213.469436101616,207.978245303765
507,239.050299385121,232.238562957674,225.218462842519,213.782259181368,208.287515170891
508,239.360972811684,232.555381245234,225.535770432322,214.053958917665,208.561457053839
509,239.45875181926,232.670374279221,225.655704474453,214.136700787669,208.656093094391
510,239.18157930855,232.421519785542,225.420837684805,213.881541085172,208.426294542733
511,238.442893442735,231.721769174826,224.747187500665,213.209935564568,207.794145699888
512,237.36168082324,230.688202213561,223.750736857609,212.235014248345,206.864729603169
513,236.091582543421,229.472313741003,222.581181925939,211.102222531621,205.773982009001
514,234.786963373366,228.225821290388,221.387800391699,209.955679810965,204.65760822531
515,233.607857248874,227.102186943316,220.316591603422,208.929117826221,203.649508264011
516,232.716970211832,226.255695057282,219.512009697155,208.151372196321,202.88273122831
517,232.273739252293,225.837542739702,219.115636689829,207.748763620321,202.487739798669
518,232.332198055178,225.899706022382,219.177182751387,207.767834214547,202.512161689983
519,232.821115809835,226.376243591273,219.637174752865,208.160314799703,202.905181023149
520,233.661961867572,227.194341699116,220.429775161052,208.872407325293,203.610242158087
521,234.764664798973,228.268802032697,221.47564643117,209.834097746201,204.555821326362
522,236.003408199564,229.476067868584,222.653637766046,210.925146617717,205.624034345296
523,237.245476185457,230.685178559823,223.83452759287,212.015620010527,206.688048565388
524,238.370095623657,231.77716348121,224.900873048836,212.987604737088,207.632997460771
525,239.364766455781,232.741753640086,225.84201714973,213.83216775038,208.452499477665
526,240.274626597557,233.62654615598,226.704149193099,214.598390376217,209.19792383768
527,241.14479680849,234.47906941967,227.533406531012,215.335284587299,209.920501312464
528,241.997560455122,235.321796464606,228.351955986862,216.066724286711,210.643571528986
529,242.824731708645,236.143771964969,229.149983381572,216.783044665169,211.353262303865
530,243.616004539688,236.931714666251,229.915449287426,217.472247387114,212.033112591931
531,244.344162839212,237.656633699348,230.620881389583,218.107810039629,212.654041262017
532,244.922332821108,238.234115681907,231.184361136736,218.611970195934,213.142444328567
533,245.250491280654,238.567531304588,231.511969236173,218.895671385876,213.414904322175
534,245.240436509142,238.571527344001,231.520675798934,218.88012206565,213.397794465729
535,244.928567559334,238.279602614934,231.242227272124,218.594724919767,213.12068369552
536,244.425972996875,237.796499484244,230.777170554228,218.133737567128,212.674999619291
537,243.8441925166,237.22744703872,230.226522273532,217.591899315824,212.152599152006
538,243.264044934671,236.651459449341,229.665966714891,217.042199790599,211.622944595743
539,242.720349956083,236.108298662582,229.133257435536,216.525062291758,211.121966259616
540,242.244153646718,235.634506481618,228.663036261323,216.078238468943,210.682843581317
541,241.866287476064,235.264828101496,228.289289008942,215.736062847033,210.337228728134
542,241.616720931589,235.026792175128,228.043366464259,215.519144183733,210.110639189978
543,241.525207102375,234.946115660972,227.955957895387,215.444645417998,210.027052361684
