"wavelength","nadir","45","70","-70","-45"
319,0.0669028859205176,0.0813237209018153,0.0847453170767612,0.0710986812960539,0.0586800210474698
320,0.070661214715002,0.0868282175786866,0.0901513738687183,0.0752072896718728,0.0622162590559092
321,0.0754436582432633,0.09342792115787,0.0968070260650849,0.0803499233069671,0.0663939820033778
322,0.0810471042853197,0.100921415813083,0.10447291324729,0.0863168083413333,0.0711025142861812
323,0.0872714707854524,0.109115135815968,0.112916107178801,0.0929002353882164,0.0762376939103758
324,0.0939408380184176,0.117878111602568,0.121954969419473,0.0999089570347192,0.0817472979776338
325,0.10089084838519,0.127109327042198,0.131432404654264,0.107159603229764,0.0876039574165291
326,0.107954314482666,0.13670043496955,0.141185310694118,0.114466875955897,0.0937742202380669
327,0.1148775181357,0.146318917192518,0.150866904985042,0.121586523142833,0.10003862880088
328,0.121307542007282,0.155375265116079,0.159919833198134,0.128206707600094,0.105964487971531
329,0.126886244398427,0.163266197395951,0.167775513873871,0.134012082180548,0.111107634623072
330,0.13144667652409,0.169682338323655,0.174155156579744,0.138859355333774,0.115233899290856
331,0.135360851793014,0.175142815836476,0.179596875675616,0.143090250669935,0.11870107296832
332,0.139095069208997,0.180311695605998,0.184781694161946,0.147131339945412,0.121970503715946
333,0.143067611473005,0.185783311034408,0.190317292297464,0.151367603573584,0.125454657016791
334,0.147327563709342,0.191615823778869,0.196247417657257,0.155864225937267,0.129190139987835
335,0.151752758225143,0.197618691475653,0.202354236844951,0.160538053579016,0.133039217312325
336,0.156219775391357,0.203601127727819,0.208420353729454,0.165303581872888,0.136864650559305
337,0.160596309281426,0.209404229727569,0.214281651412482,0.17003156545962,0.140570557432395
338,0.164740103825472,0.214904795281601,0.219833670688066,0.17454378171296,0.144107362825129
339,0.168508508795774,0.219981634684872,0.224975219149018,0.178659568327391,0.147427985085644
340,0.171854561912971,0.224604669060431,0.229687514436506,0.182306531049314,0.150518606395723
341,0.17499572023432,0.228995590680528,0.234179502037153,0.18571145819676,0.153457328567321
342,0.178194731131418,0.23341921572293,0.238699133154174,0.189152382723984,0.156337997604928
343,0.181689193949007,0.238122110078494,0.243477912777529,0.192880031545636,0.159258794942598
344,0.1855262959533,0.243212654837971,0.248622820912888,0.196938379778825,0.162350728373288
345,0.189666066638332,0.248735979435919,0.254183838449605,0.201276765550151,0.165759831377048
346,0.194068060113934,0.254733908848756,0.260207871885026,0.205845586707696,0.169626365777513
347,0.198691161286493,0.261164725652305,0.266663832981144,0.210638741753502,0.173926428428792
348,0.203493510976252,0.267893821772248,0.273433911289157,0.215698497491199,0.178453581440471
349,0.208433158554392,0.274781705965662,0.280395712287753,0.221069509655703,0.182991895075153
350,0.213430497071019,0.281667290286163,0.287388649177344,0.226697562695554,0.187357362880864
351,0.218302055206917,0.288329918355799,0.294146792501838,0.232255732427366,0.191454029808754
352,0.222846606678713,0.294538750945908,0.300386205137041,0.237370476833205,0.195200992646482
353,0.22686964179566,0.300068281151026,0.305835091889679,0.241703836099528,0.198516123467997
354,0.230227731055581,0.304733554781864,0.310313997857975,0.245188455734821,0.201307980307976
355,0.23280091527244,0.3083682508041,0.31368589664121,0.2478813189338,0.203480841587959
356,0.234490112646582,0.310833857622499,0.315842808936337,0.249856055641889,0.2049563608513
357,0.235788746653133,0.312783001605056,0.317499649286935,0.251642850692774,0.206152882814076
358,0.237854812444863,0.315755673175149,0.320294314642722,0.25428397456889,0.208045855900924
359,0.241880976869105,0.321338175608477,0.325912815229007,0.258848353667301,0.211639789920315
360,0.24861393921593,0.330535601057963,0.335389563183479,0.266012765944823,0.217562494163029
361,0.257551378401457,0.342725244940887,0.347934041287828,0.275355700069043,0.225386753593932
362,0.267973967650177,0.357001588107354,0.362438667794351,0.286264827142211,0.234502052498174
363,0.279152052078844,0.372431730033051,0.377797954742957,0.298099115511458,0.244286223513864
364,0.290275584188987,0.387869637221525,0.392922711937514,0.309994115100409,0.254026404410214
365,0.300496831296002,0.402069367052796,0.406731388991429,0.320980645256985,0.26296721844181
366,0.308983712590723,0.413808259747222,0.418163264127312,0.33010764505557,0.270367559448421
367,0.315378997159069,0.422577543552301,0.426779597063489,0.336984263914013,0.275920665355021
368,0.31987079828268,0.428688315680499,0.432855965878769,0.341863028162229,0.279818599143229
369,0.322677458695437,0.432497071567724,0.436707528635435,0.345032068497155,0.282281049619883
370,0.324201908960406,0.434587300836462,0.438874588186139,0.346935795459351,0.28367060728434
371,0.325380669437898,0.436198667367971,0.440548275575062,0.348470379222919,0.284762949920601
372,0.327246112470691,0.438688707618792,0.443036634075074,0.350613142294143,0.286407960695472
373,0.330693241372599,0.443236527449152,0.447478512008097,0.354215392888729,0.28934485178964
374,0.335502653890165,0.449573715390197,0.453640164494238,0.359106148914036,0.293415017556896
375,0.340913841984715,0.456729009929986,0.460621376434806,0.364618049565518,0.298023911940757
376,0.346165491185743,0.463728586674712,0.467517872778089,0.370080205420234,0.302575029437467
377,0.350586040333973,0.469666214809835,0.473436789114313,0.374813906348279,0.306501833779883
378,0.353610974906131,0.473716280772441,0.477498870234484,0.378131114648868,0.309273532295379
379,0.354682304251366,0.475058251239971,0.478826031733369,0.379343541641222,0.310361655774357
380,0.353652034637108,0.473448907390802,0.477141022303111,0.378237436751536,0.309607840541841
381,0.351614744118132,0.470394689191697,0.473987526897602,0.376037225249411,0.307975396465162
382,0.349899516102776,0.467732242362494,0.471252888121933,0.37423875328981,0.306639322147306
383,0.349767828700066,0.467201549542328,0.470722637472823,0.374256538898505,0.306711374943611
384,0.351899390033816,0.469710769835762,0.473306182125215,0.376805239809257,0.308759096591954
385,0.356677152742096,0.475743756860084,0.479466026345182,0.382242521497399,0.313072429479928
386,0.364454577189506,0.485745363729939,0.489625741365911,0.390894983769056,0.319917058562466
387,0.374607576294504,0.498876914590793,0.502934306891478,0.402072311308448,0.328764284258733
388,0.385284928814896,0.512688494920908,0.516940683299618,0.413807635636577,0.338088200760845
389,0.394557780645576,0.524628258491072,0.52909261211548,0.424053333313498,0.346299818860548
390,0.401209305153388,0.533082442115714,0.537779517806096,0.431516676505383,0.352399943498172
391,0.406319320555195,0.539463069781698,0.544428223483928,0.437339853409552,0.357291760838465
392,0.411429818386491,0.545791070287161,0.55107679374789,0.443155051024276,0.362261289352085
393,0.41810844331224,0.55412402326488,0.559799971501753,0.450629486927827,0.368620104917207
394,0.428161120268449,0.566859941308175,0.573013187768213,0.461755761849417,0.377917174565275
395,0.443523127038271,0.586581644474764,0.593316819549668,0.478703114041804,0.391830335508336
396,0.466079759338651,0.615805642477837,0.623244177473216,0.503585654471348,0.411994450748951
397,0.495583893573965,0.654213949013677,0.662462572182128,0.536151527315672,0.43820365187043
398,0.528934848172183,0.697695515752506,0.706804094357986,0.57298279053187,0.467788842988169
399,0.562832637321498,0.741874370520921,0.751832967325933,0.610440370004246,0.497908885354822
400,0.594415797535652,0.782948527949791,0.793705088985906,0.645376665579337,0.52609063845394
401,0.622350010753606,0.8191149004939,0.830636852376799,0.676355625568396,0.551142508413499
402,0.645633186216647,0.849005256660831,0.861292906957731,0.702313542081661,0.572151699161238
403,0.663423989309679,0.871467457495899,0.88455222152326,0.722357951901722,0.588348156400136
404,0.676521274065609,0.887554147757966,0.901480456667869,0.737343594507733,0.600418214584899
405,0.686682763448262,0.899606908454107,0.914421632539982,0.749146639678215,0.609899626040408
406,0.695666648593533,0.909968582358716,0.925720621831199,0.759644290496228,0.618330907379137
407,0.704652496148211,0.920235784527276,0.936962279462994,0.770124062200885,0.626754194148829
408,0.713984390458356,0.930927643556949,0.948634062291021,0.781022013230131,0.635494891786749
409,0.723941270678352,0.942479272937991,0.961137859543618,0.79270781108762,0.644822519959262
410,0.734678639179191,0.95514470036933,0.974704185862492,0.8053851088019,0.654885094537928
411,0.745881545145062,0.968487783364991,0.988910397906739,0.818624830350067,0.66536754538457
412,0.757122975696037,0.981907980732217,1.00317826994431,0.831847183494465,0.67584449516027
413,0.767976012428549,0.994804534286935,1.01692800994631,0.844482452360063,0.685894912089966
414,0.778014814988087,1.00657420980471,1.02956195321353,0.856075900239272,0.695147350676139
415,0.786814229044649,1.01661219741445,1.04047106164059,0.866245958269682,0.703261920016413
416,0.793956007952595,1.02432363744664,1.04905584886371,0.874618885451291,0.709904937057709
417,0.799455022834794,1.02974014164782,1.05532815564522,0.881238760929445,0.71510076040837
418,0.804008827047693,1.03388076891324,1.06026339939609,0.886808233898555,0.719438095602463
419,0.808375046148626,1.03785146793926,1.06492178685854,0.892087904017157,0.723555307532721
420,0.813045427711987,1.04238054228518,1.07000345149721,0.89756349953691,0.727864131176974
421,0.817388818019613,1.04660136008972,1.07468780383343,0.902559864853447,0.731819159362512
422,0.820477670865006,1.04922630246344,1.0777528559217,0.906095426285372,0.734622344951225
423,0.82145788157897,1.04906983279639,1.0780728047052,0.907268713902232,0.735540295122115
424,0.820430537831725,1.04627411353436,1.075772844087,0.906220098691195,0.734680520800419
425,0.818164825989497,1.04190995151361,1.07185316392975,0.90381865572319,0.732738693717474
426,0.815446582714786,1.03707019947505,1.06733579203342,0.900951254620147,0.730425004456122
427,0.813307669198277,1.03309769508833,1.06356759817709,0.898742424671715,0.728654563274075
428,0.813208035910421,1.03177025650621,1.06246068589884,0.898730229365673,0.728699046161221
429,0.816650522235915,1.0349092812036,1.06598378772365,0.90249416287634,0.73186585230313
430,0.824815579787658,1.04394996674093,1.07567562359741,0.911286733248978,0.739181941409489
431,0.837357416558267,1.0584991685169,1.09103915400824,0.924812435430804,0.750346620597743
432,0.853479032344168,1.07762322339316,1.11097550148041,0.942318120393747,0.764666698878637
433,0.872363162404051,1.10035624558783,1.13436495365775,0.963019712629085,0.781430319361815
434,0.892886918269253,1.12524597602447,1.15977388527759,0.985666189276018,0.799644059211423
435,0.913690381642407,1.1504629434916,1.18552521248493,1.0086443813412,0.818096124039085
436,0.933412816360066,1.1741752014902,1.20994213470339,1.0303380920234,0.835573823219601
437,0.951344475370653,1.1954448228666,1.23215237314901,1.04991064562894,0.851446944358877
438,0.968039810470048,1.2150700358119,1.25284600316049,1.06803917010188,0.866216428095957
439,0.984198505246844,1.2340485189072,1.27289258409561,1.08557469990154,0.880513162493239
440,1.00044809257732,1.25326502582974,1.29307146857958,1.10327895445239,0.894904641782985
441,1.01702887503627,1.27299824632264,1.31367787291881,1.12143430257014,0.90961812777052
442,1.03405180167907,1.29332441566558,1.33484528863608,1.14016298694387,0.924767228289143
443,1.05161233853819,1.31430315465137,1.35668936166094,1.15957016775015,0.940451619467546
444,1.06952863445499,1.33569730644499,1.37900626444943,1.17945525970148,0.956521411328033
445,1.087378433963,1.35701243978902,1.40131522016742,1.19935262893426,0.972610366803867
446,1.10473175839543,1.37774583065264,1.4231263644235,1.21878807846105,0.988345198134566
447,1.12120534992074,1.39743936151459,1.44396647653535,1.23732950455415,1.00337505865283
448,1.13651830079485,1.41573263314405,1.46339879675008,1.25463701606712,1.01739826279549
449,1.15040326361259,1.43227819298343,1.48099139601473,1.27038293907662,1.03011963834246
450,1.16261642370944,1.44675595934975,1.49635548175297,1.28426862842132,1.0412756690393
451,1.17305878829495,1.45901429253696,1.5093677258102,1.29617408365391,1.05079765131147
452,1.18168641279386,1.46896557928706,1.52000570566304,1.30604720893553,1.05869093179541
453,1.18847625080919,1.47655049410827,1.5282731546314,1.31385912525112,1.06497754158414
454,1.19386334024012,1.48233022150581,1.53474577223812,1.32008957433332,1.07004394820699
455,1.19872989521039,1.48747168016988,1.54055760433959,1.32571480719833,1.0746323775353
456,1.20397563899333,1.49316549152679,1.54686448240159,1.33173051745343,1.07949892979042
457,1.21008623836196,1.50003586074959,1.55427649987445,1.33867334380262,1.08504947369495
458,1.21651330618356,1.5072924398321,1.56204083832098,1.34593349320607,1.0908152189602
459,1.22254968829401,1.51392769246889,1.56919541992855,1.35272515127376,1.0961930815107
460,1.22754155109468,1.51902639811839,1.57485948299081,1.35832223853637,1.10062445574378
461,1.23121582304546,1.52233256293615,1.57873294396432,1.3624252424819,1.10386835674796
462,1.23346501862081,1.52387687794825,1.58076824494621,1.36492015627265,1.10582192667356
463,1.23419608603811,1.52370315746303,1.58093377744782,1.36570872418165,1.10639549883608
464,1.23369866456183,1.52218764698884,1.57961288332984,1.36510976194417,1.10585065716558
465,1.23268601165307,1.52007457531054,1.57764823194435,1.3639037607435,1.10483780093808
466,1.2318931875017,1.51812710029234,1.57590612378081,1.36289497142573,1.10402733217489
467,1.23189136996899,1.51695582855343,1.57506573224996,1.36270725573312,1.10393051936526
468,1.23278035778521,1.51673257948118,1.57526799213415,1.36344561739729,1.10460091095831
469,1.23457571571947,1.51755076257123,1.57655765667365,1.36512234186297,1.10601026227832
470,1.2372917128312,1.5194958034042,1.57897508321846,1.36774935962241,1.10813546041929
471,1.24093174315547,1.52258611774391,1.58252373396064,1.37133562201546,1.11099646394416
472,1.24549376737439,1.5268066420741,1.58718863762411,1.37588859194519,1.11463475067742
473,1.25097358405878,1.53213960444476,1.59295271246571,1.38141391346619,1.1190898098888
474,1.25728940205112,1.53847724947042,1.59972669029608,1.38785112589412,1.12432260004302
475,1.2642613851935,1.54559811565845,1.60733008569514,1.39505623636468,1.13019484542809
476,1.27170338515106,1.55327342070104,1.61557652658762,1.4028798620234,1.13656188310523
477,1.27926918290448,1.56108669007206,1.6240527234693,1.41096878542421,1.14312541712674
478,1.28607714977975,1.56799365018216,1.63158638600674,1.41828799652028,1.14907327483798
479,1.29113384429697,1.57281892040231,1.636846717176,1.42366010243119,1.15348596763285
480,1.2935374926953,1.57449087501287,1.63862793937405,1.42601532494243,1.15552768659166
481,1.29330358400878,1.57297610020898,1.63697526787282,1.42536071997738,1.15519995423299
482,1.29097579429489,1.5688390152866,1.63265427660979,1.4223234163776,1.15298645326163
483,1.28711025965955,1.56266009188921,1.62644550317907,1.41754440050648,1.14938211938544
484,1.28257287209521,1.55546908600641,1.61944918412493,1.41198931331684,1.1451585128449
485,1.27867927979045,1.54894810093516,1.61322974921593,1.40709518442454,1.1414888443509
486,1.27678047602316,1.54483050614474,1.60938810787082,1.40433608856872,1.1395778892083
487,1.27797167491626,1.54451680447889,1.60924304428698,1.40491264238614,1.14040166894144
488,1.28234499128294,1.54810208246473,1.61300692093313,1.408953030971,1.14403909225334
489,1.28974667190728,1.55536145817382,1.62062090705996,1.41632257747834,1.1503491779925
490,1.29995438752273,1.56598856078462,1.63192717930096,1.4268083812149,1.15913088609206
491,1.31191424242063,1.57868886940991,1.64556751068305,1.43924898398654,1.16945489047095
492,1.32401906207043,1.59151040216302,1.65938499133829,1.45185180932636,1.17990730337325
493,1.33465877166785,1.60249827263629,1.67121841662,1.46282088152934,1.1890715930847
494,1.34275791451137,1.61037365251862,1.67967019329716,1.47096321520803,1.19599162899965
495,1.34813880896421,1.6149930063337,1.68462504776956,1.47609841633432,1.20048442424419
496,1.35070968558536,1.61632143996112,1.68609041745842,1.47814299037148,1.20244097759884
497,1.35053285520709,1.61448271673681,1.68423163228004,1.47717818883887,1.20189428389372
498,1.3483832668741,1.61033440818446,1.67994429230839,1.47404723188721,1.19953408530797
499,1.34524175658699,1.60494608896107,1.67433497858528,1.46981347858098,1.19623986365311
500,1.34207615381664,1.59937809617957,1.66850396044634,1.46552598146484,1.19288074219257
501,1.33965914295326,1.594552073689,1.66345664560159,1.46201915273287,1.19017039057494
502,1.33861306925494,1.59128281650133,1.66012536067484,1.45996204635486,1.18870271749227
503,1.33955396026281,1.59037938227319,1.65943691389168,1.46001726260307,1.18906632417102
504,1.34279501959858,1.59228105224173,1.66186764550438,1.46257568510094,1.19157453589619
505,1.34805744810178,1.59670421669956,1.66701325762396,1.46749700755673,1.19600252983186
506,1.35499388551376,1.60328154640537,1.67436746379002,1.47457940544768,1.20206315906655
507,1.36315625339925,1.61151617460322,1.68331251271775,1.48346734917444,1.20937745963307
508,1.37154398293762,1.62020065543672,1.6926192119125,1.49296215867745,1.21706280435114
509,1.37896804263475,1.62788515396796,1.7008497972046,1.50157754275651,1.22406475904033
510,1.38427897902913,1.63316513927908,1.70661174055152,1.50787513972715,1.22936100727429
511,1.38708004776497,1.63549811882504,1.70937272034869,1.51132908711614,1.23254036411361
512,1.38764721557061,1.63511202088338,1.70936919857741,1.51222904112674,1.23373782497196
513,1.38628160724434,1.63226394829403,1.70686677279825,1.51089507413581,1.23310913277138
514,1.38363969947425,1.62770482999787,1.70262933469072,1.50805824144759,1.23117559907344
515,1.38119200352092,1.62331684407382,1.69856226033841,1.50539107165304,1.22929597438329
516,1.38052253680317,1.62113990605812,1.69673009045223,1.50469736911379,1.22894577878869
517,1.38300816591912,1.62292927374893,1.69891512084784,1.50753915053203,1.23140594808652
518,1.38866896145732,1.62857575429069,1.70505100032011,1.51389477230726,1.23668293029496
519,1.39697891616129,1.63721975816687,1.71432734158602,1.52310520555824,1.24427022267549
520,1.40740298102978,1.64799997180454,1.72592943349054,1.53450383016919,1.25365449477797
521,1.41922005700623,1.66006319752472,1.73898616504711,1.54727989048108,1.26418870863135
522,1.43151579941705,1.67256466742784,1.75256784415116,1.56047292079081,1.27508694755081
523,1.44336739676137,1.68466047310307,1.76574255312833,1.57311604871437,1.28555728322588
524,1.45417319331982,1.6957951493757,1.77788620637887,1.58458542331903,1.29508374746474
525,1.46419909950879,1.70619242795353,1.78920629194687,1.59518382744949,1.30389584722372
526,1.47385607080718,1.71620631148954,1.80004932549191,1.60536896430593,1.31234772259655
527,1.48351433783636,1.72615728411515,1.81073228757866,1.61555414853138,1.32076047077225
528,1.49322306698013,1.73610157861216,1.82133931172713,1.62580274687155,1.32919468722998
529,1.50287927078543,1.74597019781753,1.83184418415881,1.63601228413444,1.33758751447581
530,1.51237300859324,1.75568476635984,1.84221044869154,1.64607211019514,1.34586899248549
531,1.52139332815859,1.7648798114418,1.85208281695968,1.65563263766952,1.35375744584221
532,1.52938617608204,1.77284264786359,1.86072040853571,1.66405531113566,1.3607151529112
533,1.53578300776044,1.77883988683114,1.86735933952105,1.67068434542301,1.3661891233227
534,1.54020173159549,1.78238537239953,1.8714760934234,1.67507226629538,1.36980507240237
535,1.5428575836856,1.78378499286278,1.87331720360442,1.67743895207925,1.3717612236075
536,1.54408517090851,1.7835029197129,1.87328309123588,1.6781376457449,1.37237021119902
537,1.54423182339902,1.7820084754331,1.87179508345873,1.67753834620968,1.37195739395009
