"wavelength","nadir","45","70","-70","-45"
319,1.90600131623778,0.226468603120411,0.251275123353332,0.198405575624763,0.18914463946193
320,2.09424737740135,0.229090256521674,0.293843545361376,0.159342899084335,0.158362638937846
321,2.27882431653368,0.211573218282047,0.317718779673462,0.138024810156774,0.168443155976061
322,2.45696957932408,0.179348248899882,0.310630060335082,0.118047007839557,0.183107382657295
323,2.62984733893093,0.168068017702673,0.280866442464906,0.100979061925199,0.214504705709184
324,2.79787729518429,0.199749977312919,0.244734489394252,0.0956113533483398,0.266644597029178
325,2.95892517364351,0.235130272370754,0.218663061971744,0.0940323871516849,0.316548132788707
326,3.11009043311356,0.228755408268648,0.209001302985373,0.0770931258354474,0.335110933739342
327,3.2538924576256,0.183063054839811,0.213350131730592,0.0657524656605839,0.316760640900175
328,3.39772889495408,0.169265750457371,0.230031731851665,0.100375920161891,0.289541261222995
329,3.54457555611294,0.214649980841689,0.257420914910153,0.135813475496831,0.277765595806356
330,3.69337779743724,0.262430866852193,0.303183869793947,0.163388960017918,0.295074186935306
331,3.83341964479488,0.290597133272894,0.363797810152884,0.212288691994395,0.334945160956646
332,3.94868500918552,0.2921940466215,0.408775626589788,0.259154279972698,0.370720147078656
333,4.02085705309935,0.262281381953255,0.401688669285928,0.257269685682076,0.369789040219134
334,4.05724022845562,0.233812102225329,0.350918131000869,0.208708824840059,0.336599038646225
335,4.08469935161358,0.2378655784028,0.294328388156756,0.152292058472071,0.299471712603147
336,4.12956800019686,0.241299127964627,0.259126298816596,0.119601160696015,0.276320168938111
337,4.20371652077459,0.219651980713595,0.255052457583995,0.116687196112828,0.272834965836427
338,4.29674985941082,0.209553710278008,0.278983384970983,0.135358921988139,0.288774948715618
339,4.39595413726122,0.227572815264339,0.310980778894427,0.152456585690143,0.312383496035279
340,4.48982664486104,0.242285759683461,0.328294937685696,0.147277922373224,0.328876810248942
341,4.57231180832382,0.242161574847567,0.33483850587404,0.131661705131257,0.340181789041123
342,4.6382183866443,0.233463879748214,0.336245035397082,0.113038792788575,0.348141432010739
343,4.68297100442898,0.222363096659373,0.331851678248915,0.0909645487005039,0.348900372459703
344,4.71717741666548,0.219962545072197,0.329716453153765,0.108845266583398,0.34813683217461
345,4.76148876166799,0.231966743131051,0.336890079120326,0.16172899427337,0.35048926217333
346,4.83563252116706,0.26192099749515,0.345089178697818,0.191464521818017,0.349446218420863
347,4.94485499840908,0.325711578338621,0.348020567891002,0.179089353997535,0.348030478882831
348,5.07145580732212,0.407378957533418,0.35364332477911,0.148235308833507,0.359498908228307
349,5.19527666572824,0.459065405371906,0.365127656795582,0.121315344981218,0.377345146657576
350,5.29919031810084,0.442646227841717,0.376564633895635,0.105571009098973,0.383366480293044
351,5.38036370310968,0.382733993492104,0.384631593669823,0.105949152383087,0.381328158285871
352,5.43958157791504,0.319646264275089,0.387743430170153,0.114744747079923,0.381204433132042
353,5.47778911861187,0.282375915235564,0.384032412894193,0.113400423712211,0.389034769162315
354,5.49918608224381,0.273270166787289,0.376727496918058,0.10807934101642,0.409121230756937
355,5.50917140451001,0.284268228817482,0.370402838488922,0.11448691188588,0.433731164670067
356,5.51197285090328,0.304382768247312,0.365209153274877,0.124645399291944,0.441350457123797
357,5.51784541344999,0.328110703419182,0.361536079851998,0.130679102739669,0.424186383228886
358,5.54749337090846,0.354303514459449,0.362587482279165,0.139914621940036,0.403008318668145
359,5.62158844851607,0.372290251103835,0.368860878827834,0.148707978946151,0.394901279419558
360,5.75328214895901,0.370676979747183,0.382691435761377,0.147803183415472,0.402179722952672
361,5.92898296867994,0.358060652819697,0.407960138097266,0.143206535181344,0.418905098015113
362,6.12822438871519,0.346225211863642,0.437417976114707,0.14151797370536,0.439881210625262
363,6.33108175217608,0.340935372388874,0.456539395034589,0.14137427547259,0.459029993812804
364,6.52458650607972,0.34387971770948,0.465954805562163,0.144928963355999,0.475560971225751
365,6.70035503823502,0.354120475278685,0.474303824704744,0.153468740905088,0.49179749108165
366,6.84969829824487,0.365688765423637,0.481881379808264,0.157800429635399,0.507945319298155
367,6.96534253262298,0.373440472557928,0.486585338129587,0.152185001698649,0.523121943436926
368,7.04262327841409,0.37785911286064,0.49004872304005,0.144181394632813,0.53484422111986
369,7.07688751744129,0.377910818063781,0.490383370726286,0.138868196327271,0.537931734711258
370,7.06818140625693,0.371214069763765,0.484162750617849,0.135120310650774,0.527873735773995
371,7.0390160060419,0.361367487775507,0.477220311447831,0.133707286966154,0.511022075771416
372,7.01824607692737,0.353180514112315,0.475472712826578,0.135473934450481,0.495808276959299
373,7.03272934200668,0.349508383299136,0.479026839891905,0.137979883874125,0.487821317893031
374,7.08303374381549,0.350618383812948,0.484853999207643,0.140575283243544,0.487334585741516
375,7.15066601163367,0.355121968052648,0.489498620463036,0.143994477444871,0.491336375294533
376,7.21663837999172,0.360429026388924,0.4874153065996,0.147492098678675,0.495371115640448
377,7.26391547098512,0.364845871011979,0.47666584738431,0.15331811756407,0.49645117173409
378,7.27889222758872,0.368361947126781,0.464486846830271,0.163723591509695,0.495117598410464
379,7.24816241791718,0.369108999206183,0.458417584613152,0.172740618720503,0.491050815993974
380,7.16488805127881,0.364756651415632,0.464490595769088,0.173122946858339,0.483610794877251
381,7.05373048283862,0.358115626961762,0.479603244746824,0.169418216701992,0.474808520162112
382,6.94854735911546,0.353244405802069,0.49236761789907,0.167527532852251,0.465997543927661
383,6.8819278226898,0.352384863354113,0.488913221894098,0.167655647868851,0.457858721082077
384,6.86964314936197,0.353717449243045,0.473322000379663,0.168357145628219,0.454350543522644
385,6.91454361131639,0.353155057479974,0.461635090844938,0.169602816738832,0.457851559260289
386,7.01882836111378,0.346415136953141,0.463160629408661,0.169669098565325,0.464171091367063
387,7.17202860143573,0.334117728885347,0.477286341006376,0.16750662032778,0.469600837329977
388,7.33969276495651,0.325672319490466,0.497464715313746,0.165702433434541,0.47727257134517
389,7.48414959712766,0.330224815167873,0.51705706093918,0.165648642936764,0.489197189374206
390,7.57643750799894,0.352948786845233,0.529817463793082,0.169336573154434,0.503828963111674
391,7.63312485071387,0.382303814255027,0.536689244372765,0.177647646549284,0.517976732000923
392,7.68479180274083,0.400763410686842,0.539739046601073,0.185111563145545,0.527944865804339
393,7.76166435610204,0.392723477236823,0.539605066086779,0.181778741397091,0.529501800246913
394,7.89759801948272,0.368124812759557,0.540262693801113,0.169312803961563,0.526111620803133
395,8.12962815608377,0.351124941016177,0.548778296108407,0.159644029247616,0.527314647224836
396,8.49445711538444,0.356418602060417,0.571338299931944,0.162520142757996,0.541548233549535
397,8.99742595855503,0.391708131943466,0.610367605382786,0.182204845944146,0.572452726178744
398,9.5815276366432,0.45124719691751,0.662070034927589,0.212214078750991,0.614983807110941
399,10.1822879983839,0.516105104873324,0.721218999692999,0.239610861955112,0.661943392151607
400,10.7404165875149,0.563062901695491,0.782209463405981,0.254974580750516,0.706265737345693
401,11.2253880245468,0.590058394953451,0.836946464467697,0.261588245940803,0.744554239412489
402,11.6164417803383,0.603428137397329,0.8750464035842,0.2603889685765,0.773562123832183
403,11.8943671850129,0.608529825017667,0.886607870463239,0.244935469781911,0.789389451331462
404,12.0685064775227,0.60929175636199,0.877298907961978,0.218879073352346,0.794341366512762
405,12.1730179361407,0.608935181675596,0.862778522242437,0.196150486769912,0.795344739735372
406,12.24280139437,0.609891668538022,0.853913170003085,0.184366719439959,0.797728403105336
407,12.3056649585241,0.612842771237886,0.856327792828853,0.186260803781204,0.803978237963139
408,12.3740510269571,0.61650612057905,0.868443844955142,0.202161156410505,0.811665251828758
409,12.4583404638589,0.61961057000972,0.884011125739292,0.22236379104863,0.816181970567773
410,12.566181110071,0.621561652939359,0.893200452671499,0.233602682353117,0.813240629601466
411,12.6891094535146,0.623751338366812,0.895379698877841,0.238717639818582,0.807567712576345
412,12.8126631615712,0.626976331605023,0.894845819543795,0.242999172121565,0.805869010792904
413,12.9226731517937,0.631101623191758,0.895297141873814,0.244778314240679,0.812370605953098
414,13.0120431631355,0.637288773705755,0.897918194455257,0.244810525664665,0.826380695961222
415,13.0803891445005,0.647031146198903,0.901690849196383,0.249102804165021,0.842760031520479
416,13.1275892546162,0.660297237900222,0.904703596747284,0.260049077175533,0.854360703230656
417,13.1546030415042,0.676321748659339,0.905405483403917,0.273808123620896,0.856607459261298
418,13.1649369442213,0.691918539512141,0.903910249885553,0.282325170879288,0.853669714399088
419,13.1624086842244,0.700354736043664,0.899801219657396,0.277818792037063,0.850027023035177
420,13.1499127090496,0.694377726018058,0.892252039068499,0.25583758049712,0.848850536106442
421,13.1244404712128,0.678730172012952,0.88340522022404,0.227888384604129,0.849977255557879
422,13.0805449089378,0.662565010530631,0.876503949503847,0.207558576770997,0.850253010293224
423,13.0129297389381,0.651964965177164,0.873909106320245,0.199381768426818,0.844301865405207
424,12.9213662502014,0.647411771249194,0.874800276454544,0.201963830588441,0.831449971813902
425,12.8109258885838,0.646381319710004,0.87559926018032,0.213486738168992,0.816677702061038
426,12.6869172582883,0.646383252348708,0.872463361000825,0.227737211687791,0.803706558977826
427,12.5610749765256,0.64519114172525,0.863249571570267,0.237097491274485,0.794455305790437
428,12.4622645040915,0.642439770175311,0.850875070906594,0.241503058777897,0.789967077432181
429,12.4221531943105,0.637847488167873,0.838999170443075,0.241395636735734,0.790691291934879
430,12.4680648581633,0.631490878424512,0.831213892245764,0.236015449960145,0.796019921122938
431,12.5943637320361,0.626765363771556,0.830580430391268,0.228978427484094,0.804615594684403
432,12.7802273042506,0.628011884140465,0.839154401723647,0.226160544906955,0.814734800898719
433,13.0047655617568,0.63878354196249,0.858195385788516,0.232415779898414,0.824028385154781
434,13.2492608617937,0.658325929280608,0.885202061965809,0.247486801787018,0.832034324279087
435,13.4974953826099,0.680252142541608,0.9128881664343,0.264662668650563,0.840540457096581
436,13.7333249336559,0.696612094393756,0.932592744405092,0.275557040117627,0.850852486386558
437,13.9464085093451,0.702127557168482,0.939068880627022,0.2756770364017,0.863674687544566
438,14.1439681822691,0.700478468422625,0.939666263286487,0.270845025389731,0.878016568362629
439,14.3364878530742,0.695852789652783,0.943968229756208,0.265979707027915,0.891447278180373
440,14.5335395467077,0.691260846905547,0.960108183785529,0.26279503266566,0.901160431899985
441,14.7369037239725,0.689739709254785,0.986339792207363,0.262920986614435,0.908906486601686
442,14.9442883757291,0.693543488676901,1.0155011734633,0.267721118227851,0.918201597023264
443,15.1532701423953,0.703219282784381,1.03996347853695,0.276684244755836,0.931361416709174
444,15.3604443260139,0.71819955123058,1.05607049188795,0.288939075588855,0.948779805462222
445,15.5611720283382,0.736811511149972,1.06535024025469,0.302257707548405,0.968327132830028
446,15.7507035232069,0.755831130217052,1.06915654452603,0.311086128711875,0.98632536739863
447,15.9249627529418,0.771731379905376,1.06917360529122,0.310552034025079,0.999393344993864
448,16.0823221410675,0.78404273109151,1.07004162565539,0.305027756471564,1.00815379501142
449,16.2216794880223,0.792551409534513,1.07710875430664,0.300275960310409,1.01352161323109
450,16.3419435799822,0.797032558567933,1.09469581527524,0.29996029438081,1.01545212125789
451,16.4421963360128,0.799838147356407,1.11801660737022,0.303259153250904,1.01486627155045
452,16.5216124655073,0.803093397210247,1.13704205039832,0.306857617116793,1.01345807898812
453,16.5794598600935,0.806561278254214,1.14186994139812,0.306481057060824,1.012455988525
454,16.6205107679751,0.809979390521395,1.13080184726407,0.301213226694385,1.01252501159463
455,16.6576110318347,0.813810704183882,1.11389671094743,0.295536361828836,1.01385922834971
456,16.7042213704536,0.816769761143232,1.1018319015199,0.293251793962468,1.01628517946454
457,16.7691068862312,0.816547558053303,1.10254765698589,0.296419447576904,1.01949732013833
458,16.8425379041407,0.81388801518191,1.11296859933432,0.303281284729122,1.02331767612354
459,16.9102014817883,0.810209259720963,1.12664978718296,0.310363229145967,1.02703707768626
460,16.9585082488957,0.805863960217064,1.13682783725929,0.313520636736673,1.02939533380619
461,16.9830056213932,0.801504180947751,1.14118382041799,0.312793085055101,1.03038143121887
462,16.9853396254711,0.798470068326615,1.14038625287551,0.310745988518028,1.03097441559594
463,16.9673043377585,0.797937038150307,1.13474480332482,0.308878257162798,1.03181255962471
464,16.9341262705108,0.799978118202838,1.1258408190781,0.307989605557701,1.03274356592095
465,16.8967654590414,0.802743424732179,1.11776925405257,0.308424281892304,1.03280416788482
466,16.8666811986626,0.803578031692132,1.11457837407045,0.309646949299765,1.03079723995624
467,16.8532875079832,0.800469021347412,1.1189719985016,0.31086934255988,1.02609694994074
468,16.8567378759011,0.79588605976708,1.12838035312021,0.312171663762373,1.02059890825837
469,16.8745154766852,0.793183599353338,1.13824342971299,0.31263799209844,1.01652953336537
470,16.9041613270194,0.794890179896496,1.1438212641876,0.310119701010601,1.01555523562994
471,16.9445497259441,0.800683354522424,1.14443324881703,0.305701469070884,1.01799788048677
472,16.9955837195377,0.807966877533476,1.14226910339187,0.302740149672619,1.02304235679303
473,17.057164496132,0.813451964645278,1.13883900664192,0.303041058954303,1.02935538107178
474,17.1274458912677,0.815334594752977,1.13520297272407,0.306419148908869,1.03563658401773
475,17.2012068381049,0.815298855468265,1.1325868503817,0.310877872624853,1.04097691742875
476,17.2728201411867,0.815052273023404,1.13211793240497,0.313711501162818,1.04410134058295
477,17.3357423626023,0.815672759782644,1.13431126135151,0.312369458260608,1.04373674562025
478,17.3785823825705,0.817267292461153,1.1375021089534,0.308961145822,1.04102732265038
479,17.3883130385403,0.819494706308342,1.13898770108551,0.306509928751786,1.03788846721163
480,17.3526723425562,0.821884623221471,1.13589776050932,0.306906838970807,1.03588417977189
481,17.2738436229804,0.823730840071078,1.12863182269388,0.309956696588959,1.03469290014852
482,17.1667337982195,0.823269661486236,1.12030778710947,0.313820332197315,1.03227029602317
483,17.0466676537962,0.81754503659334,1.11356746419332,0.315951104084205,1.0262424444382
484,16.9279556724146,0.805955855474042,1.10969658666282,0.314778817732677,1.01619035681749
485,16.8226521080867,0.79380445028408,1.1077505366796,0.311559853427967,1.00594716789592
486,16.7425032179149,0.786155860606688,1.10623399788139,0.306994759850627,0.999364996796872
487,16.6980135440802,0.786360212727668,1.10348933284932,0.301615550968722,0.999522266918224
488,16.6917179631511,0.792487441195482,1.09885497552317,0.297550894191452,1.00524324970179
489,16.7229894653857,0.799619688784419,1.09190674017195,0.296284366913768,1.01230146167695
490,16.7907754406947,0.801187657865116,1.08207580688055,0.297566258975357,1.01528440133517
491,16.8844233066751,0.795209607938705,1.0718675368493,0.300748495375344,1.01343040419639
492,16.9834812850372,0.785749767319071,1.06663334846632,0.304216953630653,1.01025036893225
493,17.0670364171268,0.777261904430596,1.07118147608088,0.303933387587298,1.00745575571933
494,17.1193569913869,0.773232873718158,1.08678198971761,0.297150794067685,1.00521946355781
495,17.1384000823857,0.774847137641427,1.10608365528388,0.28813072334984,1.00396923019548
496,17.1243068161258,0.782304841001869,1.11990356491902,0.281304738966559,1.00407203896293
497,17.0784527213472,0.794933114970889,1.11985160751327,0.278940637092765,1.00496096832272
498,17.0120610595257,0.808487350743492,1.10836210595906,0.280074084252857,1.00566669321224
499,16.9409131160102,0.81690533426762,1.09286131899913,0.282468058259791,1.00534370521907
500,16.8805517169586,0.813806850660556,1.08050072408077,0.282936590254784,1.00309428280152
501,16.839508275922,0.799473707609806,1.07481228097819,0.28095503794851,0.999391746432987
502,16.8180435731109,0.782379578798327,1.07474907635,0.279679518158383,0.996171629564934
503,16.8159253456601,0.771280965276864,1.07826857595931,0.281988253096193,0.99504766068745
504,16.8312040845087,0.7717456746974,1.08282715225162,0.289954197945104,0.996995561105643
505,16.8566056582705,0.779320525558415,1.08595972541252,0.30164854591345,1.00111731486686
506,16.883808162056,0.787022267321105,1.08515397068509,0.312271607282601,1.00553799143702
507,16.9047209368575,0.788423899320374,1.07818313671932,0.316357073188439,1.00794327144911
508,16.9134642332124,0.784225451398621,1.06810983554154,0.31522317337023,1.00781499955403
509,16.9053373206471,0.777898799258979,1.06084814824151,0.312946582654904,1.00545418543256
510,16.8756693173222,0.771350178677398,1.06196797223536,0.311563392671266,1.00062796506434
511,16.8222174208584,0.765665080545934,1.07199445075876,0.311636295975652,0.993721117806343
512,16.7461099321746,0.761668825566453,1.08457403575498,0.312544539138075,0.986129169128707
513,16.6486968413807,0.759349453954937,1.09269748086741,0.31198468729096,0.978740516890154
514,16.5352472479489,0.757656305535527,1.09144702255619,0.307671187049623,0.972019912546498
515,16.4257677660051,0.756107772179938,1.08316952585558,0.301630647522886,0.966410920463449
516,16.3437022677625,0.754476632743216,1.0711255200454,0.295607016495703,0.961996354221155
517,16.3106179226002,0.752657572273586,1.05782864065401,0.290095104176401,0.958403293915222
518,16.3265724172006,0.751212540028845,1.0462343576028,0.287325829821427,0.956285183505855
519,16.3778292435276,0.750278339677253,1.03964204829206,0.288845895683975,0.956818154035153
520,16.4504337958393,0.748858914072091,1.04077827521602,0.292708302643979,0.96065282072947
521,16.5331678527838,0.746649768555537,1.04927846757879,0.297273877221984,0.96726473881397
522,16.6192616825955,0.744951976754626,1.06026235789097,0.303102004247973,0.974204814887046
523,16.7023189366079,0.74442878711833,1.06805863260117,0.308573642335174,0.978065572995266
524,16.7771751274341,0.744947527012048,1.06840100997998,0.310625359189429,0.976292883687695
525,16.8443113170878,0.746489736596336,1.06458457515824,0.310274589485047,0.972055992648856
526,16.9057823084659,0.748734608120205,1.06175289401787,0.308970361923668,0.969542132995412
527,16.9635981875286,0.751019356530152,1.06425411411825,0.306824123184218,0.971800303443964
528,17.0194480423415,0.754162015352255,1.0718002189731,0.304743240634265,0.978573534942837
529,17.0747810824606,0.759299618197329,1.08073055722036,0.303540414899332,0.987189919133766
530,17.1310025620204,0.766734469973445,1.08703178213266,0.301698135107491,0.994232861312219
531,17.1863608777853,0.776955275083333,1.08859517386826,0.298016757833885,0.997305288311034
532,17.2330308645053,0.787956721756523,1.08745869519791,0.294110827393456,0.996899869515214
533,17.262455054732,0.793335839601526,1.08610685241814,0.290571974334555,0.993628574369452
534,17.2680381371603,0.786471530906362,1.08651633319609,0.287288900550196,0.988072179756634
535,17.2538515369167,0.772823613199354,1.08817165507504,0.285935289658101,0.981779662954719
