"wavelength","nadir","45","70","-70","-45"
319,0.131990250838978,0.174183241302342,0.663326670361954,0.183048207372227,0.287055109741315
320,0.138441748784296,0.204241908404025,0.46181553621206,0.166411098650012,0.232055401161749
321,0.15020245015866,0.234053578315952,0.354192121523082,0.188003144908555,0.210150186842569
322,0.161701992249329,0.261853029803563,0.313546472239216,0.188178372073148,0.198551673337786
323,0.178765543241632,0.288513091040011,0.310806705245959,0.175334354115824,0.192633278934346
324,0.203776386598726,0.315467535323608,0.312749838895445,0.178929513407424,0.196656058054336
325,0.230188346685493,0.343493515050488,0.281574760269977,0.21184025088743,0.2092327319486
326,0.248767342859972,0.373911611916312,0.206317202918433,0.25388022400171,0.220814125429425
327,0.259449805510799,0.407612450998671,0.226854000016606,0.288750556691816,0.227475539697653
328,0.269620936720259,0.44036866221653,0.362117447744664,0.317374545407946,0.234130262230784
329,0.282001476941256,0.463494475911404,0.428823201086062,0.345128415730321,0.243306128372778
330,0.294571935144999,0.47134652299255,0.35184250198203,0.376604497107358,0.253294190367084
331,0.305433615620212,0.47102115041763,0.202801679053691,0.395055565960502,0.257419829108551
332,0.313409980908845,0.47093031732197,0.12049537384983,0.373236041221718,0.249080861956797
333,0.317232280135676,0.476360302242062,0.146277410030096,0.324001588741697,0.235431461370787
334,0.319004372700907,0.486846369731264,0.144669810761865,0.356747027964138,0.246271719856271
335,0.322459421095912,0.500290395759624,0.123491187659512,0.448783116052359,0.274437098483648
336,0.33073355946119,0.514627575304689,0.13548830567096,0.466321952445807,0.279688536566706
337,0.343549599103978,0.528513634032388,0.176279323246028,0.391022243606383,0.261051110741856
338,0.357052488164515,0.541311627217781,0.17802167547203,0.331023703035045,0.253027070292411
339,0.367040545081051,0.552010428406012,0.110306565176436,0.349421787229447,0.263433326973497
340,0.371441036669097,0.559986004201729,0.227333259989553,0.375936593324842,0.296314315147821
341,0.373604192105159,0.566267005046424,0.474978482233216,0.382572656770634,0.359697442322053
342,0.377024021005311,0.571986087714139,0.639412580611513,0.385638157739892,0.414625074148219
343,0.384289749038549,0.578046448342915,0.613152252578935,0.397687586997203,0.433341592456239
344,0.395667019916121,0.585612553007798,0.441592930678998,0.418263869992824,0.461842094723415
345,0.40988503708713,0.595859847775549,0.244511943783641,0.443550115567839,0.512562315132763
346,0.4248491169521,0.609845168619564,0.148703862435994,0.467186198816928,0.523639098860342
347,0.438997732100546,0.627097160839415,0.140505587825449,0.484975586445512,0.470061281390561
348,0.451575577180831,0.644688308373957,0.142326695808455,0.497718979163381,0.400656391670308
349,0.461414044058517,0.6585656172363,0.145706603406221,0.506680561662606,0.360724924960851
350,0.467991395474774,0.666506141185312,0.141019907703647,0.512321383428192,0.352494457582258
351,0.473359208957684,0.672706810405967,0.133656121404127,0.513032394453339,0.360630617160904
352,0.479634247814771,0.68231394377905,0.132319425853909,0.506902366950162,0.379952798772788
353,0.488058771796285,0.699060966531651,0.13482515702885,0.496152952166162,0.417904143465462
354,0.497549758517677,0.719221049875615,0.13680149682934,0.494096686626588,0.481740212346706
355,0.506247093485844,0.735554085666883,0.138318178328799,0.509072850948137,0.543652159524973
356,0.512558121834935,0.740829483289918,0.140939031965359,0.564957104713162,0.557628608096768
357,0.51714072294767,0.735612815617616,0.145730063985755,0.695324365442116,0.521267869436203
358,0.522496590506355,0.729152639675017,0.151580715072728,0.848938717209359,0.477684222654531
359,0.530404466504297,0.730822209451542,0.156168525840848,0.924314333720293,0.451246426403003
360,0.542068838233769,0.74673521528489,0.160631762937707,0.867435418797256,0.437540668014199
361,0.557918613792786,0.774099155448467,0.168952668875958,0.753798672024634,0.435073065997709
362,0.577934959515096,0.808129462192014,0.181336879759868,0.670584786727459,0.447592204971603
363,0.601470074118517,0.843801597155659,0.210333102245378,0.648504563801825,0.471100303052909
364,0.626912194802607,0.877369423353304,0.253531259801165,0.660765716665975,0.497208970374432
365,0.652194238407423,0.905522811791705,0.263283752260323,0.687797837768437,0.513565625489638
366,0.675041789382578,0.924723482453266,0.193843677437276,0.710501999978868,0.514800545783311
367,0.692812223024016,0.934862577718537,0.160454378883797,0.718820871699309,0.530553341774918
368,0.702201228770107,0.939846183473108,0.291406796117568,0.719139305568575,0.573845062847578
369,0.699577849824512,0.943565928907889,0.377229663821156,0.71490146060152,0.596634561734844
370,0.684958853405445,0.948381445912096,0.329977815765996,0.705989224310093,0.561996928747263
371,0.667698731233171,0.952573268827577,0.21886140406878,0.695102789474687,0.515901219205125
372,0.657207152221083,0.953475047249654,0.170651249342978,0.685797893741072,0.506652478945592
373,0.659977001541591,0.94885480807122,0.200329028091342,0.680236272461424,0.527655580786478
374,0.673403835882535,0.941546802955287,0.213390126263917,0.681654466242601,0.545448086948795
375,0.690985911584305,0.936386741298831,0.205819792662917,0.693636079427355,0.537604770415297
376,0.705696758775207,0.937592082224213,0.19797794545995,0.718903524779417,0.496046050155353
377,0.714008064321922,0.945123412556465,0.19959208212539,0.749746903580066,0.473648687867855
378,0.717159808354769,0.953674259058597,0.205666217182693,0.762421044543722,0.514972274345367
379,0.716448141675838,0.956813584097109,0.208969548934283,0.734806623082261,0.550909222522229
380,0.712971332135577,0.949955446637884,0.205002216957125,0.684112881973771,0.517995366531323
381,0.707508518214834,0.936506355750913,0.199021989062427,0.672350918289676,0.470690005710514
382,0.700537653041085,0.921524845239418,0.197002936392473,0.69001354454573,0.468432360313639
383,0.692466643870835,0.909768810623396,0.2024837012111,0.673977153331444,0.486775384706294
384,0.68647555127079,0.903808781804634,0.210876367170207,0.640079895884003,0.491988053895119
385,0.687218760540947,0.904992253163893,0.212826766141518,0.645182042328778,0.488462409410584
386,0.69906287479064,0.914332073487939,0.201299339701585,0.68175651549653,0.49563568868114
387,0.720944562547482,0.930188202597595,0.190641573462117,0.708277868711051,0.542298435122088
388,0.744992321322422,0.947653506811372,0.197006777769877,0.720451910687231,0.616884635830099
389,0.762730776057461,0.961453952281359,0.232636940644901,0.725280457311235,0.664174807657767
390,0.768747012970127,0.968223755346706,0.354533811022067,0.726026072079031,0.649749642414578
391,0.767613845182834,0.970634566821443,0.52670115032303,0.726319364134139,0.615399544278954
392,0.765657983268205,0.972179913711243,0.645032988991033,0.730526285650183,0.599261474249869
393,0.76876518094045,0.976075638878902,0.622064232592638,0.741676293404175,0.596273372592809
394,0.780823887522729,0.987145390728755,0.485633111781006,0.761374763044523,0.593174305838681
395,0.804445205363656,1.01120060852375,0.32893618476901,0.790041914521908,0.593957916964678
396,0.84171962914787,1.05396771077948,0.240494552363628,0.82813574224102,0.600945282802931
397,0.891032049186806,1.11522995614162,0.226341433972707,0.875787596784138,0.618128063143642
398,0.946141480388588,1.18595697901179,0.242681689186669,0.925221523923296,0.65437119152346
399,1.00045139096862,1.25557690052566,0.26696267268187,0.968034081752831,0.721095216565722
400,1.04863153504768,1.31536016211824,0.280413343847536,1.02173953044056,0.84646857672832
401,1.09000091142876,1.36400850706395,0.284404657493271,1.10956563211174,1.01175104666757
402,1.12474241382073,1.40156611154891,0.285478022346128,1.20002864823433,1.13812530074544
403,1.1529794694066,1.42770187040949,0.287719836481441,1.25343111833648,1.14315241924419
404,1.17477421786279,1.44443887201349,0.290791251036973,1.30227810403458,1.05233630528163
405,1.18998812928719,1.45544698058247,0.292217374349333,1.36510496357452,0.94968083084874
406,1.19827003914617,1.46448521016686,0.289281835358384,1.3825547463153,0.8897703184354
407,1.20108528092738,1.47371357853997,0.282398163313731,1.31744741951161,0.87220784478868
408,1.20261811181052,1.48257033740248,0.275603174641879,1.22460834872942,0.87657339500099
409,1.2070900936665,1.48983070516102,0.272273088826698,1.16276986130395,0.891269020261315
410,1.21739010050106,1.49458664196463,0.274992306100629,1.15882616598774,0.917158616248739
411,1.23178647838786,1.49768279804971,0.277916761231568,1.20272859886698,0.962543192464693
412,1.24731337102607,1.49997838365249,0.267845102165146,1.2611681203449,1.00337691205282
413,1.26109688627565,1.50177117658221,0.243366949902142,1.29311059826989,0.997859423909455
414,1.27246022425465,1.50357196259907,0.245846273172967,1.30098929113749,0.95666209825598
415,1.28177620694741,1.50625525761776,0.283636945009556,1.30683305014368,0.922714402230758
416,1.28895186145979,1.51058948667424,0.301468273823628,1.30819407982386,0.913472205175194
417,1.29389257341863,1.5160021496761,0.273710502211113,1.29265654288456,0.917118425447142
418,1.29674557818685,1.51974468394467,0.237592457018274,1.26615016112105,0.923694585135165
419,1.29738787689925,1.51858535876647,0.228588279064737,1.23897103589966,0.930330804631401
420,1.29538411862203,1.51049358640238,0.236842113086662,1.21626299659452,0.934095120876903
421,1.29046156814204,1.49881507479775,0.243125087566832,1.19805935654487,0.93083405154477
422,1.28238568463191,1.48782350514183,0.245385410101927,1.18437048630119,0.913366420586329
423,1.27092960755618,1.48083034250236,0.24773600182929,1.1763857052504,0.884886166966455
424,1.25740647520116,1.47606180449751,0.253157618600715,1.17272629644522,0.877271582694155
425,1.24409210333414,1.46831499644447,0.258834611912001,1.16335167221949,0.897085046469743
426,1.23307029026897,1.4520749969493,0.257370393747984,1.13438080672233,0.899704483407766
427,1.22588394185985,1.42713815031963,0.247489601458684,1.09500854200544,0.863801295583037
428,1.22296958664222,1.40290774212685,0.236910610573567,1.07528107930649,0.835210760071311
429,1.22415040545069,1.38945416945815,0.226780161641457,1.07650598614349,0.843923022947441
430,1.22889251248206,1.3941800155684,0.214770732995041,1.08173079339382,0.873495732648463
431,1.23705454278101,1.41281011511911,0.209564050774402,1.0944058737483,0.902986068221523
432,1.2486395164154,1.43741159377718,0.21855882570382,1.12227539107402,0.924012913278227
433,1.26348563140184,1.46010234284395,0.255211551539427,1.15823161476172,0.931828012215755
434,1.28089086058118,1.47884837115104,0.325992556405456,1.19672163463597,0.93756951595385
435,1.29947281383676,1.49617006492467,0.390205186593328,1.22851721676941,0.951009823524065
436,1.31746701910152,1.51442523920447,0.407666886388291,1.22932795255349,0.962250298104191
437,1.33416131966538,1.53477254512592,0.423757696740556,1.19342261159536,0.963717048214549
438,1.35071625370677,1.55645754404799,0.503538530585533,1.15642310319022,0.967957709226714
439,1.36788403658701,1.57846904899473,0.564964454302793,1.14380335623514,0.981783048198337
440,1.38592832765615,1.59995154305656,0.50734732541587,1.15681090022523,0.997847823964202
441,1.40522586910741,1.6209520576509,0.376730461165631,1.18630266397191,1.01139377022982
442,1.42608481427087,1.64156910664352,0.294905704835056,1.22563066474797,1.02396970834035
443,1.44832563846185,1.66176412287407,0.314980094657146,1.26280545814642,1.037268517667
444,1.47132766261874,1.68126996823281,0.364021442232847,1.29030337088904,1.05147231955428
445,1.49438718279721,1.69916225434578,0.410332864032347,1.31033721716151,1.06527400484195
446,1.51675475728798,1.713788560233,0.431883748322119,1.32660266636625,1.07832811334405
447,1.53751368254604,1.72438383886381,0.412366489334975,1.34237974231603,1.09696451479182
448,1.5555859215163,1.7329559023652,0.373694815109998,1.35921959570149,1.1255241741882
449,1.56987138828383,1.74168353463884,0.341897078920165,1.37789577853539,1.15278815461235
450,1.57951579924755,1.75185904585272,0.328238758497937,1.40047494158788,1.16339857012833
451,1.58526754262655,1.76186655726913,0.327152225860585,1.42581154853534,1.16288877281689
452,1.58839995742661,1.76910757322106,0.334166761129629,1.44495610278842,1.1601093327445
453,1.59010952550934,1.77109735232013,0.346609641292459,1.44347336054837,1.15148998950572
454,1.59149073831309,1.76880122158601,0.360670411380416,1.42165063889981,1.13581158634463
455,1.59351215451494,1.76653748462,0.369386495020142,1.39552333242602,1.12157593042473
456,1.59703107367149,1.76865963654462,0.364206902955254,1.37818031741431,1.11503738787917
457,1.60228755922484,1.77719963440088,0.345500338248236,1.37523929800034,1.12010471469574
458,1.60817282996503,1.78846103461514,0.328483848627348,1.38309462833918,1.13625212820297
459,1.61332748526261,1.79775818139864,0.319250330399167,1.39530790329928,1.15530170628845
460,1.61660340729459,1.80093950003752,0.31236150118147,1.40439446094745,1.1636578916195
461,1.61883740612066,1.79841448837922,0.307954197335529,1.40952227628744,1.16082820301066
462,1.62173111004187,1.79249886569307,0.311209880305927,1.41260848153204,1.15342499606277
463,1.62688975166803,1.78536973342079,0.320598155935913,1.41338880419644,1.14481701611572
464,1.63365241901642,1.7786908729851,0.329420761872877,1.41072423866472,1.13600444875517
465,1.63878760235231,1.77353767626227,0.331637210777429,1.40482338930207,1.12929688971895
466,1.63883038252441,1.77080699762199,0.32218532211758,1.39631191437535,1.12761500995871
467,1.63203663571345,1.77075065922725,0.304966398066853,1.38605120724206,1.13262143078635
468,1.62168738953308,1.77187735708394,0.294477531106847,1.37584566700613,1.14129365340297
469,1.61186624424445,1.77215815179764,0.28974542718809,1.36771432609357,1.14903911989992
470,1.60617734362812,1.7697128882085,0.279269005227488,1.363472554974,1.15502062357844
471,1.6051390336264,1.76596487592648,0.272957983296981,1.36146133424943,1.16552322682341
472,1.60770072348466,1.7640258289846,0.282951471933556,1.35750540344406,1.17862338870356
473,1.61273284237753,1.76680571826646,0.308840394015543,1.34744310925552,1.18045776954775
474,1.61926221520443,1.77451391301565,0.35953494641026,1.33414847324318,1.16793540077781
475,1.62641264023367,1.78411542188867,0.424450167615268,1.32651076599589,1.15662519488643
476,1.63311459616996,1.79236751181481,0.459792939200023,1.32990813368112,1.15766358112661
477,1.6381950659008,1.79666983594465,0.433083851156837,1.34505670187555,1.16945019504526
478,1.64034311520486,1.79657782512474,0.374981586031918,1.36390440819796,1.17810795919337
479,1.6379951204206,1.79204144046594,0.328784086190931,1.37525106046325,1.17017891574692
480,1.62973535566582,1.78303839293991,0.317489246585716,1.36740969051067,1.13872577825822
481,1.61726557359697,1.77057465201858,0.334355612865957,1.348721144988,1.10159368617742
482,1.60379534786012,1.75627559177145,0.365380399084948,1.33886510743461,1.07662623784322
483,1.59201317219582,1.74176933836542,0.396713866123161,1.3592155828833,1.06446370520209
484,1.58276558545153,1.7282559747623,0.426924085013514,1.4178776120251,1.06403754376574
485,1.57454041015696,1.71624033009698,0.457237204870502,1.48523045107357,1.07880947564264
486,1.56536857382783,1.70607527009709,0.471218872277197,1.51222787077266,1.10086776268058
487,1.55408532643524,1.69821526593948,0.451453250575636,1.46494841719679,1.1112412987519
488,1.54415717061425,1.69359833097563,0.414911774318382,1.38504291666295,1.10789277143648
489,1.54026563135152,1.69318048560147,0.386864606815113,1.32378918188127,1.09767166018627
490,1.5465138586756,1.69763399417333,0.38355259201583,1.30861288013295,1.09004905691271
491,1.5607781120765,1.70588902306794,0.402617719729985,1.32961027019709,1.09284674881098
492,1.57678111367112,1.71575585842844,0.429327560025435,1.36396113063213,1.10214966270444
493,1.58819045568176,1.72497052419871,0.442684041559223,1.38538559854041,1.10580579043442
494,1.59187516533873,1.73148943682084,0.432695639295333,1.38005221427948,1.10707231965142
495,1.58978865907928,1.73370394934737,0.412032598233971,1.36422746460272,1.11921648589828
496,1.58403331448196,1.72999523854539,0.393182299937287,1.35771860419763,1.13071254178051
497,1.57652430387559,1.71952325817697,0.381902217648267,1.37413923467965,1.12259344357749
498,1.56859947860385,1.70509248285862,0.376539959889419,1.39704460163983,1.11027667320541
499,1.56092932558435,1.69049605069076,0.375500446662469,1.39916909939031,1.10635514058478
500,1.55361123858673,1.67929515545941,0.377199221412945,1.35848753588594,1.09853929883331
501,1.54742794839059,1.67265679714906,0.37905438778588,1.2974585542266,1.08306635833349
502,1.54381732411016,1.66981634545701,0.377367047865105,1.25364091085337,1.07386419027564
503,1.5438089573669,1.66977939868545,0.36851871365034,1.23817888181379,1.07614979793552
504,1.54735879134469,1.67150224447172,0.354807151958182,1.24914116797973,1.08452403385721
505,1.55320160886863,1.67404007084662,0.344619961753459,1.27513013092225,1.09500656777691
506,1.56001466296357,1.67641448220934,0.339810823818789,1.28649473258782,1.10372509049391
507,1.56640871783406,1.67757043772972,0.337651129095869,1.25156796279252,1.10498445869056
508,1.57067685994903,1.67649019990938,0.338402715300351,1.20454958758612,1.10065898876928
509,1.57089711713537,1.67213429829895,0.342215743126739,1.17733523318298,1.09587012807366
510,1.56514157980625,1.66347124338112,0.343963094837811,1.16686527809889,1.09459934767573
511,1.55390568933249,1.65071238524534,0.339980659472282,1.17643530245109,1.09551416289529
512,1.53988187287958,1.63515802481612,0.330540884675964,1.21728071255599,1.09089435022951
513,1.52575453899914,1.61805593411099,0.315146647132049,1.26850118664755,1.07406855243962
514,1.51355526109386,1.60107929666349,0.297249512315862,1.30408276183918,1.05662294178128
515,1.50398321189877,1.58698235860262,0.287356818020934,1.33197663070534,1.05959368224738
516,1.49750984888463,1.57859210432938,0.290700060646001,1.34700160788131,1.07381570110433
517,1.4945004454431,1.57804784129794,0.305748508144739,1.33082424158897,1.08132540060056
518,1.49485675443727,1.58344439483581,0.31776167080641,1.29400863632165,1.09788718626853
519,1.49824248611393,1.59119962898517,0.303476533515727,1.25767145419267,1.12972077555388
520,1.50421236862053,1.59772068852417,0.263181093494629,1.2238906729391,1.1440288063112
521,1.51173313427592,1.60196867337396,0.292716471165332,1.19247215198765,1.12391134604132
522,1.51914074358306,1.60561111461623,0.399329289294744,1.17886590342718,1.09304512589145
523,1.52464350479369,1.61041533644859,0.455676365339086,1.20317885582233,1.07100237565967
524,1.52734835312188,1.61740299625375,0.399101820870353,1.28151219206578,1.06088512529889
525,1.52882048470959,1.62550418544337,0.298037186879687,1.38733829280427,1.06049303909674
526,1.53093309178056,1.63312404557414,0.251333494343041,1.46250828709846,1.07133486953783
527,1.53540255080791,1.63874658590258,0.262453591959109,1.44885699026512,1.09637527520148
528,1.54204875856262,1.6421912676572,0.267968979281578,1.37457207352828,1.13178277664922
529,1.54912248656646,1.64381164338162,0.259630828477347,1.30674655951247,1.16352847118193
530,1.55420919400111,1.64372802303041,0.243262297633168,1.29838666215972,1.17109524597812
531,1.55632784873644,1.64206917238722,0.225812547762229,1.35653946657921,1.15042686895174
532,1.55629542666192,1.63918005474682,0.217548602852165,1.43764143045924,1.11981669447788
533,1.55441266453059,1.63540314004742,0.218627165917664,1.48220574004739,1.09560487654391
534,1.5506832980793,1.63105501384354,0.222454200348342,1.4485668551328,1.0854188047305
535,1.5461769338762,1.62647602484682,0.229170420742433,1.37063234227338,1.0857179870948
536,1.54221747599635,1.62194737439248,0.239279009322177,1.29489651305075,1.09241835016867
537,1.53973310069782,1.61770457433238,0.247787286112235,1.25187912957388,1.10486837636162
