"wavelength","nadir","45","70","-70","-45"
319,0.00572759319131648,0.00034630290019558,0.00289813925957945,0.00249396170653342,0.00253609893112399
320,0.00617283525437673,0.00043310157553646,0.00314033985449538,0.00263760374104723,0.0028999580897734
321,0.00671998045070952,0.000533975576309911,0.00335563431740014,0.00314073417523676,0.00307640686739821
322,0.00734615159272262,0.000424331640499323,0.00353041646790274,0.00391219071232679,0.00310945569862055
323,0.00803702329214602,0.00041729724397814,0.00367796904219832,0.00492871027047838,0.00305945198459539
324,0.00877649604229506,0.000743914376677529,0.00381458519671043,0.00604476536782858,0.00300951551280752
325,0.00954259024258105,0.0010739458710933,0.00394692535328259,0.00702664769633558,0.00303942213145856
326,0.0103090898447047,0.00119649042815735,0.00407234745526911,0.00763206182128751,0.00321776118789528
327,0.0110547329284966,0.00111552615687711,0.00419616245374325,0.00783185737986602,0.0035459485174756
328,0.0117664818246791,0.000980171108237685,0.00433641431451615,0.00783820049845215,0.00393227030308911
329,0.0124321379386823,0.000844299440847373,0.00450749202489833,0.00786742743421112,0.0042582412472987
330,0.013047404240376,0.000670747299281749,0.00471065066760189,0.0080585497679928,0.00444070966724765
331,0.0136316920433585,0.000538771413495803,0.00492725663079676,0.00837470597944975,0.00453837131073117
332,0.0142087188553351,0.000536609868981399,0.00513811900178642,0.00875360128966014,0.00463953746842545
333,0.0147991781499238,0.000557888734051277,0.00532964504678103,0.00913917996043607,0.0048215046568962
334,0.0154000551631037,0.000548406004739616,0.00550079211859618,0.00951467106218146,0.00506341392982449
335,0.0159973531312103,0.000557637789078877,0.00564904500422354,0.0098776118674937,0.00529846693436639
336,0.0165767807185276,0.000595333974566116,0.00576611747096052,0.0102242241792857,0.00546146801043518
337,0.0171149996611733,0.000649531446166162,0.00586310974986566,0.0105605927553676,0.00554312706668541
338,0.0175781448386891,0.000700019569098313,0.00597160171145691,0.0108957091218515,0.00559624047303923
339,0.0179320499314125,0.000720244288408421,0.00611879152168318,0.0112302487025264,0.00567614387116497
340,0.018176875815581,0.000806511704780594,0.00631460472684875,0.0115676023258117,0.00581590156652596
341,0.0184022452473492,0.00103942302508453,0.00651811565290481,0.0119114963900746,0.00598830496920966
342,0.0187086969465066,0.00127468692753676,0.00666931681788198,0.0122483125212167,0.00615621699560493
343,0.0191798132757587,0.00133525092348984,0.00671405043560753,0.0125487770970422,0.00629087713882259
344,0.0197820218297475,0.00125165123066959,0.0067099564164503,0.0127802877841351,0.0064253908530988
345,0.0204236547442604,0.00116079905466021,0.00676152429153199,0.0129085361415601,0.00661924438892092
346,0.0210086212830461,0.00119504376383867,0.00696638240901692,0.0128950967282928,0.00693104101420349
347,0.0215147224245496,0.00136078784241425,0.00731053562645954,0.0127908918355188,0.00735112206633877
348,0.0220062449790906,0.0015443380065131,0.00763276463424502,0.0127434134384112,0.00778184128813293
349,0.02255108926369,0.00163245196663094,0.00773637751548196,0.0128944875077766,0.00811031288090888
350,0.0231837821662311,0.00156447056136605,0.00752628718032537,0.0133174385677111,0.00826836068068145
351,0.0238534312885414,0.00141731673188446,0.00721418295143775,0.0138965804902561,0.00831435092472252
352,0.0244954370069078,0.00128893636631023,0.00705158558580348,0.0144644316444,0.00831949840450696
353,0.025050514742487,0.00126483179892807,0.00722796602435918,0.0148563086467729,0.00833753981222762
354,0.0254940251658571,0.0013407079925751,0.00765270621473885,0.0150713625153577,0.00837439203405371
355,0.0258161666460012,0.0014633190408983,0.00811549441602073,0.0151855910573235,0.00841697593905828
356,0.026008597279188,0.00157568342358492,0.00840363598045667,0.0152756964105866,0.00844894900124163
357,0.0261325893429202,0.00165605660786923,0.008467023179378,0.0154138003414916,0.00848130522661954
358,0.0263280319106928,0.0017167383631769,0.00844573253869406,0.0156419833755225,0.00856132521331665
359,0.0267386475831498,0.00176234471796397,0.00848980244440199,0.0159660522553472,0.00873939402095157
360,0.0274618888552552,0.00179296911601681,0.00870221081624166,0.0163787790249232,0.00904318665945225
361,0.0284671632498405,0.00182390296080253,0.00904934566558395,0.0168910977149092,0.00943669926242461
362,0.0297018082150323,0.00187687790874299,0.00947122399084716,0.0175125239845232,0.00987249436705767
363,0.0311062946736369,0.00198611084714538,0.00990549200374959,0.0182284169849522,0.0103049750574736
364,0.0325671620197061,0.00214622628092002,0.0103023540268371,0.0189786841136334,0.010704492767074
365,0.0339455711008559,0.00228906640087877,0.0106195813972187,0.0196909507899,0.0110491565926972
366,0.0351050095604437,0.0023325398329151,0.010817246822145,0.0202964744905444,0.0113179759184933
367,0.0359850252191673,0.00229566550241966,0.010902668276727,0.0207638675175727,0.0115047943444717
368,0.0366124727258821,0.00225657707071244,0.0109353106402096,0.0211043180654895,0.0116193015273901
369,0.037018926126791,0.00220519557338913,0.0109757316074818,0.0213310537847655,0.0116711779930107
370,0.0372581443266378,0.00211562751297073,0.0110709466302102,0.0214676598727024,0.0116776009220105
371,0.0374482972282148,0.00207694854258092,0.0112261806731037,0.0215653616260649,0.0116752552773205
372,0.0377191359946216,0.00215646977292197,0.0114348660116771,0.021677886835025,0.0117017669843401
373,0.0381826884992965,0.00234833671108793,0.0116872914653387,0.0218510352322195,0.0117869493373218
374,0.0388073194658679,0.00262322328132267,0.0119585596208006,0.0220821013236568,0.0119230565019843
375,0.0394916073134449,0.00292404100245145,0.0122113959112415,0.0223446634041244,0.0120855679142247
376,0.0401342863930688,0.00314452685296246,0.0123996183399867,0.0226105611172087,0.0122497416428319
377,0.0406551800034576,0.00323857610561393,0.0125023874284665,0.0228374156129672,0.0123876135757874
378,0.0409992290357899,0.00326597943053409,0.0125388714021447,0.0229646714047406,0.0124678470316997
379,0.0411127964482878,0.00329357247296437,0.0125329168421104,0.022929679854959,0.0124589273074424
380,0.0409870958220507,0.00335554033824957,0.0125081002894151,0.022712760418765,0.0123539898517786
381,0.0407494087628849,0.00340994381669408,0.0124840439120306,0.0224097226421799,0.0122210612187053
382,0.0405526766384805,0.00340352824866657,0.0124797640227266,0.0221223409509306,0.0121423325102684
383,0.0405432515195547,0.00329587955342138,0.0125153980047397,0.0219353491064054,0.0121908244218296
384,0.0408103188201177,0.00314506345148491,0.0126213527054855,0.0218900035697283,0.0123607556784372
385,0.041413666275852,0.0030572857152245,0.0128325276518956,0.0220027786196826,0.0126060566769756
386,0.0424083577881193,0.00313378657978631,0.0131818056050619,0.0222729628711978,0.0128807368627932
387,0.0437006009637978,0.00337850607395963,0.0136476120667784,0.0226465590439909,0.0131519089848101
388,0.0450101131093279,0.00367462420321469,0.0141396203913853,0.0230208106759068,0.0134027779223385
389,0.04604491461531,0.00389678382773078,0.014562519290714,0.0232925621877375,0.0136171507957563
390,0.0466263045330632,0.00396569197943892,0.0148586022423702,0.0233924692218507,0.0137870371025655
391,0.0469408840844628,0.00395518052336019,0.0150916522096825,0.0233641287162839,0.0139322253097467
392,0.0472487914480747,0.00397020384699601,0.0153486720181981,0.0232741360420467,0.0140782607623627
393,0.0478072356988338,0.00410464038568592,0.0157123324981503,0.0231961272804195,0.0142549416559001
394,0.0488447977114229,0.00435020381772019,0.0162352935800285,0.0232652891176562,0.0145308131036843
395,0.0505740111032269,0.00464500498725291,0.0169541820507145,0.0236474684878689,0.0149954380850306
396,0.0532006421253746,0.00493192817993358,0.017903895986673,0.0245033824522995,0.0157362260333545
397,0.0566713867579712,0.00521265932678965,0.019077671225915,0.0258233229892238,0.0167430708794762
398,0.0605859090743392,0.00555410759994297,0.0204140733788245,0.0273643536266287,0.0178754082511748
399,0.0645190677065925,0.00601467799792997,0.0218481880965691,0.0288609205429865,0.0189835900574354
400,0.0681073321650599,0.00661216254368563,0.0232999271554333,0.0300949971901611,0.019948141341818
401,0.0712021916375608,0.00724255730752795,0.0246342557099167,0.0310268873938096,0.0207545016886552
402,0.0737014312757945,0.00777479784915095,0.0257019627952087,0.0316556150729964,0.0214108338524353
403,0.0755201570588746,0.00808941639650798,0.0263761230185274,0.03198315312721,0.0219256645333266
404,0.0767567843223221,0.00822378038352953,0.026752526184678,0.032062493716634,0.0223110950651959
405,0.0776171668606511,0.00830963946016355,0.0270537643565181,0.0319778999490661,0.0225810872682228
406,0.0783072509522712,0.008480862838928,0.0274959834221528,0.0318139199316328,0.0227496821181705
407,0.0789710174682116,0.00878927901260807,0.0281697236447186,0.0316301243784513,0.0228452374238015
408,0.0796630460665005,0.00916230205298067,0.02899067906074,0.0314496436540967,0.0229167062545293
409,0.0804309230998231,0.00951197835900018,0.0298620436677569,0.0312917084033716,0.0230142894831601
410,0.081305425305164,0.00976990137217925,0.0307031496745884,0.0311680313735518,0.0231786227264874
411,0.0822535377782896,0.00995608809205408,0.0314956122685332,0.0310641704551644,0.0234152802535306
412,0.0832269588843951,0.0101135838273802,0.0322353729220203,0.0309583906372368,0.0237215834431971
413,0.0841768959867524,0.0102833975482305,0.0329162659685464,0.0308305986581694,0.0240908297498705
414,0.0850493639931122,0.0104709253705893,0.0335138287135418,0.0306829014893908,0.0244711579940795
415,0.0857870505156385,0.0106573523970807,0.0339921731566131,0.0305299595403776,0.0247820359306964
416,0.0863334106635889,0.010822098166005,0.0343160639616645,0.0303839941485015,0.0249435183291854
417,0.0866864063929235,0.0109547594817137,0.0345082750783972,0.0302461064676531,0.024939134910555
418,0.0869298729817694,0.0110620763037163,0.0346831365435296,0.0301011670343235,0.0248523282357281
419,0.0871550792633242,0.0111521128614886,0.0349629262236588,0.0299307652277819,0.0247751949372443
420,0.0874206737256479,0.0112325873602185,0.0354249626347961,0.0297182703980114,0.0247737655168088
421,0.0876482626823126,0.011310662439012,0.0359567014237968,0.0294623976040525,0.0248043422888663
422,0.087723330169811,0.0113948257991309,0.0363951732527766,0.029167682877611,0.0247942659547858
423,0.0875404919117409,0.0114938528344412,0.0365910833134458,0.0288431936251713,0.0246769804219597
424,0.0871124236546086,0.0115943779399831,0.0365758101285574,0.0285214999247571,0.0244661967861312
425,0.0865343000861376,0.0116588282207441,0.0365068727827666,0.0282428000623558,0.0242318477435598
426,0.0859032529875985,0.0116429585766029,0.0365429236374152,0.0280352529143995,0.0240448445186367
427,0.0853439240183394,0.011559899396765,0.0367642992338437,0.027909440092963,0.0239508656659065
428,0.0850287358599778,0.0115189780271609,0.0371155710608356,0.0278627912846624,0.0239511929894655
429,0.0851347407736811,0.0116289336552326,0.0375275729792275,0.0278963083642886,0.0240421922587049
430,0.0857985386272466,0.0119579453136104,0.0379508030249721,0.028015063648833,0.024219565406122
431,0.0869651640130683,0.0124296122367117,0.0384274575163499,0.0282242932774917,0.0244767109252083
432,0.0885226513645203,0.0129239087952705,0.0390257500537362,0.0285237754736053,0.0248061062389979
433,0.0903578238834046,0.0133218611257604,0.0398071035036828,0.0289062840980439,0.0251989988138576
434,0.0923453190772417,0.0136046159977258,0.0407390069547083,0.0293576460024473,0.0256313596543376
435,0.0943503343754972,0.0138328026057255,0.0417143385130154,0.0298629468396329,0.0260669034294827
436,0.0962380959548228,0.0140664146792137,0.0426217094282875,0.0304090299444456,0.0264683542143364
437,0.0979351079337065,0.0143434615633243,0.0434120377790138,0.0309777178352287,0.0268182031790091
438,0.0994869026431946,0.0146647688184386,0.044160952023371,0.0315399585152841,0.0271386800137642
439,0.100952334833785,0.0150274887027001,0.0449587057337458,0.0320661274082783,0.0274567785432021
440,0.102386505262326,0.015426854618545,0.045876507081711,0.0325340907251128,0.0277951556889373
441,0.103826206992417,0.0158497293456792,0.046883620176998,0.0329565850262726,0.0281533282765138
442,0.105302155262187,0.0162804154737678,0.0479144040291917,0.0333549764863244,0.0285231116724824
443,0.106842776796239,0.016704073111228,0.0489042124190327,0.03374661042848,0.0288964358713135
444,0.108437960711231,0.0171098175622827,0.0498236810716969,0.03413594127939,0.0292672345638206
445,0.110044322643105,0.0174884648582412,0.0506743594754641,0.0345192329199859,0.0296311768491517
446,0.111617428865778,0.017829032933457,0.0514585105724008,0.0348943367084515,0.0299839949427632
447,0.11311649371426,0.0181349707085583,0.0521828978177712,0.0352580638561001,0.030322523114607
448,0.114508696322543,0.0184441075975243,0.0528646139425629,0.0356015853846161,0.0306460098615433
449,0.115762161524214,0.0187996975049083,0.0535219475911982,0.0359140352635271,0.030954023684637
450,0.116847510136913,0.0192319384757991,0.0541682273808615,0.0361841880630031,0.0312439436365952
451,0.117751050489451,0.0196883543734299,0.0547808413485716,0.0364068725876683,0.0314996722612498
452,0.118465068455246,0.020083473579237,0.0553194151687315,0.036580319402516,0.0316999910282188
453,0.118983580865579,0.0203350669139477,0.0557430173379868,0.0367042970808558,0.0318251143141169
454,0.119339381330274,0.0204593426091564,0.0560699303141121,0.0367876131759836,0.0318869857081631
455,0.119603172521157,0.0205687523532495,0.0563753400854987,0.0368461009276009,0.0319285210274265
456,0.119847215160607,0.0207789891293443,0.0567326849783555,0.0368941200430453,0.0319938678547691
457,0.120120181407612,0.0211444837352433,0.0571797497153293,0.0369435349901269,0.0321055571097795
458,0.120411675805557,0.0215675512693148,0.0576735939720505,0.0370038098322303,0.032232124769968
459,0.120702102868474,0.0219266313753925,0.0581580859422947,0.0370851683437667,0.0323337963965065
460,0.12096804410576,0.0221188656546988,0.0585786555939057,0.0371960943760874,0.0323757166844972
461,0.121159468093902,0.0221820839058977,0.0589004143139311,0.0373245280179769,0.0323582387672496
462,0.12121479632624,0.0222156962459266,0.0590964135648821,0.0374482091314527,0.0322970334711996
463,0.121075297398769,0.0223167119507791,0.059139524600256,0.0375438585818843,0.032207939460312
464,0.120762864670707,0.0224973121351292,0.0590658401545977,0.0376013147460996,0.0321097845305626
465,0.120388585849283,0.0226748020345482,0.0589840294464334,0.0376262018364191,0.0320247101606381
466,0.120068028213911,0.0227608528167156,0.0590071028412435,0.0376253258082216,0.0319750206800047
467,0.119876509917368,0.022714920708729,0.0591988829998558,0.0376085087329286,0.0319742831345853
468,0.119773921184457,0.0226329310703588,0.0594800100125728,0.03759379023699,0.0320109378290932
469,0.119699563176398,0.0226333541072374,0.0597447647009159,0.0376011302334134,0.0320689437602215
470,0.119602807244233,0.0228160368126612,0.0599020547431286,0.0376490951224062,0.0321332396786452
471,0.119517176451626,0.0231384731714118,0.0599859018601853,0.0377397110294373,0.0321966871733983
472,0.119518175178912,0.0234865309998276,0.0600918850027655,0.0378663876957852,0.0322559970604591
473,0.119679739923634,0.0237464659991817,0.0603128735574084,0.0380220055448786,0.0323079339547292
474,0.120008064518117,0.0238885193146398,0.0606818660049216,0.0381949344258729,0.0323535628968793
475,0.120423627140963,0.0239886812057078,0.0611570772251971,0.0383674074934872,0.0323993520236222
476,0.120841231147527,0.0241275198035887,0.0616912787482574,0.0385202191782179,0.0324519989994894
477,0.121185002276497,0.0243523085279761,0.0622289780262436,0.0386461492056389,0.0325111597631763
478,0.121410914756625,0.024604866879906,0.062689519572852,0.0387799098390994,0.0325531449819586
479,0.12148167316741,0.0248051806998354,0.0629871655499462,0.0389659633763335,0.0325493672572641
480,0.121362415877849,0.0248792393737669,0.0630482262264789,0.0392395316842591,0.0324746195408871
481,0.121042238863286,0.0248238030942406,0.062914700214192,0.0395297692402827,0.0323387771286301
482,0.120524027985937,0.024676819564068,0.0626926375917922,0.0397007730551673,0.032171905580701
483,0.119812027626928,0.0244768844649884,0.0624858746005923,0.0396138831769357,0.0320042480651474
484,0.118969701156158,0.0242602515164662,0.062363175287515,0.0392600767804037,0.0318609494218106
485,0.118146383734256,0.0240591819560708,0.062341170698867,0.0388234570380828,0.0317593443357774
486,0.117498034276601,0.0239050572888575,0.0624285274575187,0.0385050209983573,0.0317158336217311
487,0.117151732502165,0.023827024748955,0.0626282724271539,0.0384566126056921,0.0317422704063587
488,0.117121751581196,0.023847699908676,0.0629346292905669,0.0386313130159188,0.0318315950297537
489,0.117394774943337,0.0239882628357132,0.0633395404365329,0.0389314170992483,0.0319709199108495
490,0.117950354460909,0.0242645412616575,0.0638316118625514,0.0392602534926684,0.0321447802020434
491,0.118680909917322,0.024624106979608,0.0643818417901876,0.039567508229914,0.0323240680871104
492,0.119420748859333,0.0249676630407034,0.0649504121467119,0.039835497298598,0.0324713028628882
493,0.120003759107686,0.0251951546460348,0.0654967601426305,0.040048121990722,0.0325491224999593
494,0.120322120556353,0.0252625289799656,0.0659800832533494,0.0401981055632517,0.0325444486735695
495,0.120365982116488,0.0252161999467591,0.0663605134687268,0.0402920006829462,0.0324852317738979
496,0.120134816890973,0.0251064510501647,0.0665985090830662,0.0403374936950438,0.0324032534138136
497,0.11964381222829,0.0249710898614016,0.0666682332512645,0.0403425699466532,0.0323239563249659
498,0.118980891566776,0.0248126725472052,0.0666068070813889,0.0403172999023868,0.0322446257009971
499,0.118254851624464,0.0246257677804656,0.0664694444908268,0.0402721845940077,0.0321543799151114
500,0.117571729724074,0.0244071223749633,0.0663118716128319,0.0402161911257961,0.032044597286595
501,0.116999238609706,0.0241818333393045,0.0661996880727884,0.0401382581522334,0.031939538812408
502,0.116575674996577,0.0239968523730996,0.0662062875606595,0.0400121079193866,0.0318885010437727
503,0.116338316746332,0.0238993144362866,0.0664053138910918,0.0398116272057469,0.0319410279555047
504,0.116294940990223,0.0239162372817235,0.066813004856088,0.0395512770757576,0.0321085546993237
505,0.116395757928699,0.0240350931280015,0.0673306270084446,0.0393247256225815,0.0323265838606959
506,0.116584345751027,0.0242385057422332,0.0678438174343488,0.0392357424671386,0.0325201892571736
507,0.116805886327394,0.0245055443925289,0.0682560421820751,0.0393640992715157,0.0326267394470357
508,0.11701424072511,0.0247987398082588,0.0685685111729583,0.0396470602793546,0.032659979595048
509,0.117166147057252,0.025075212119391,0.0688131332434879,0.0399698573802473,0.0326604159709578
510,0.117218365294715,0.0252925215295084,0.0690158537092584,0.0402170737825412,0.032666878183348
511,0.117129634110953,0.0254067865305842,0.0691801665516934,0.0403431997109526,0.0326838150577378
512,0.11686052568909,0.0253710719417306,0.0692933768803558,0.0403679685210552,0.0326850156871513
513,0.116371987132089,0.0251376860507332,0.0693434119252909,0.0403140763450344,0.0326432625758522
514,0.115692756384346,0.0247205150297927,0.0693327996432498,0.0402080925273397,0.0325547729385427
515,0.115006854042577,0.0242695177407129,0.0692970637124677,0.0400851476440955,0.0324695356867234
516,0.114519953972914,0.0239477439823516,0.0692762193187794,0.0399825314911067,0.032445044589119
517,0.114405314252684,0.0238863064157767,0.0693116165550739,0.0399374505707193,0.0325279477522593
518,0.114623611729922,0.0240560420745229,0.0694535622222749,0.0399774411301784,0.0326938799431322
519,0.115049892276466,0.0243672288409716,0.0697558007469152,0.0401241611787657,0.0328899432749642
