"wavelength","nadir","45","70","-70","-45"
319,0.172561860871695,0.0886319681504,0.098971990255959,0.0561565099683653,0.0636168055227686
320,0.207508838601795,0.120063314039382,0.0925964542305816,0.0612833158904826,0.0629342682228648
321,0.2389314968471,0.144538239928543,0.093912470624037,0.0719022824220532,0.0634592572450631
322,0.261838853552928,0.159114604988383,0.0993291595778765,0.0797884267813328,0.0595901653051281
323,0.278191596031815,0.166316136295666,0.109894300695261,0.0851088351599886,0.0552598726067327
324,0.291369045139351,0.169794742034144,0.125479642227723,0.0895223605458632,0.0577575222970268
325,0.303512178369701,0.172280460808589,0.142284308184312,0.0928742857005153,0.0676489711422569
326,0.3149933410609,0.174958764713814,0.154963706159811,0.0939389854284315,0.0786240102033981
327,0.326021100667301,0.178466116141521,0.16150770474835,0.0948437106626308,0.087621764762798
328,0.337612040484311,0.183047175121855,0.164832978159743,0.0992000424685567,0.0956267695393106
329,0.350416159461067,0.187953600891211,0.167328426016206,0.106874143963157,0.102252188295055
330,0.364139261260446,0.192468864273264,0.170404635504214,0.121673445361285,0.108258687631432
331,0.377663288965766,0.197653055932049,0.173540964431846,0.14653673857989,0.116360093010863
332,0.389741988120074,0.203811001919854,0.174419844161597,0.169775648523365,0.12289827010406
333,0.399295053650118,0.209425575509219,0.169240437098877,0.175547680469921,0.119467043945566
334,0.406963275663004,0.213485260127505,0.159233782220119,0.16634357325662,0.106471850408649
335,0.413873283866518,0.216528129727388,0.15010131487517,0.156340334528065,0.0925432806042168
336,0.420358588682462,0.219842907688865,0.147869937578918,0.152946541729936,0.0856061955070309
337,0.426710434945741,0.22501901785817,0.155047108810735,0.153542234013624,0.0876842648173074
338,0.433326432526201,0.231750386097344,0.167428276989115,0.154689756697317,0.0954181822288746
339,0.439968153131872,0.23699758750927,0.179291491944338,0.154937561738549,0.104455810620544
340,0.445688661005283,0.238340457268521,0.186448374185686,0.153484301403035,0.111732822448602
341,0.449998962934108,0.238082287037467,0.190816980674597,0.152013146638107,0.117786037783564
342,0.452731239937984,0.23839350326258,0.19477490419156,0.151859416437661,0.122570752908275
343,0.453852198190021,0.23861992199159,0.199217296714779,0.153127086701048,0.124709898671027
344,0.455223695530827,0.23850374353616,0.204018316566724,0.155912364878859,0.125165765170395
345,0.459851321809622,0.239775683719363,0.208772796689575,0.160166339406927,0.126107821693034
346,0.470544307099411,0.244336406278883,0.212566408589606,0.164475880405525,0.128133623809972
347,0.487298051488763,0.252492748528103,0.214584234290868,0.167545883207624,0.131021563826238
348,0.505075141769111,0.262118417251676,0.215040747678138,0.170076760783834,0.134421800174297
349,0.517769380534381,0.270657148163939,0.214292026323687,0.173068624315759,0.136956134335495
350,0.521144743275409,0.276178766498087,0.212893777988152,0.177202944164294,0.136758250413233
351,0.519413566439519,0.279409655259179,0.212063117105326,0.181256009897993,0.134191557835524
352,0.518377280833069,0.281244068464869,0.212753481545241,0.182935294313722,0.130251228491276
353,0.522448112825582,0.282096840446137,0.215495315002263,0.180852965883118,0.125529485841522
354,0.530729964862147,0.282667772106744,0.219833810315887,0.17838283142707,0.121350832217227
355,0.538996811851525,0.283825954782545,0.224355444122449,0.178083074394331,0.119592833655553
356,0.542666598695602,0.285936557197665,0.227092945769184,0.177379821248304,0.121647303950484
357,0.54056230392104,0.28894577649611,0.227564636114321,0.17485849743446,0.127439876193793
358,0.537631044211065,0.292816653542644,0.228100736195881,0.174546885885867,0.134867893328813
359,0.539264159748299,0.29745908690246,0.230969119285464,0.179005213806784,0.141460060522618
360,0.549415288861346,0.302755424254246,0.237457354163339,0.186508364905769,0.145615629279441
361,0.566654861262209,0.308892304236494,0.246564693222576,0.19489236100888,0.148893707691583
362,0.588082483497813,0.316076953709851,0.25666863830366,0.203445608946934,0.152721859369069
363,0.610768092269493,0.324393034191797,0.266147854562295,0.212000603516096,0.157569195486648
364,0.632654954831728,0.333604120259276,0.274329109795386,0.220143354984894,0.163184531614936
365,0.652278865842846,0.343163180085161,0.281086810126175,0.226867271672379,0.168748914369394
366,0.668123271485212,0.352361682934261,0.28606308259861,0.230724678954746,0.172721778706802
367,0.679114940888598,0.360425306130879,0.288874662778392,0.231403545494776,0.174002264720877
368,0.684897107881829,0.366421923229255,0.289339213376018,0.23075565152117,0.172978823716637
369,0.685059602516094,0.369166645858652,0.287228924890794,0.230655290623516,0.169977433944491
370,0.679868815354288,0.367914830125036,0.282695744175004,0.232331909623475,0.165454904462009
371,0.672940444680315,0.364671288883937,0.277960796652024,0.235032055063349,0.161443868080482
372,0.668724756361138,0.362200422659549,0.275803662199703,0.23729620345169,0.160128224140578
373,0.671176793375246,0.362890145714516,0.278679413736889,0.237608439031783,0.163038912428339
374,0.679531596181359,0.366337794704411,0.285795748830289,0.23640455392659,0.169152390379104
375,0.689596485299434,0.370218157559393,0.294038773113405,0.23537617356322,0.175639026593542
376,0.696978021238923,0.372178554719418,0.300221003712962,0.235910377199059,0.179325488121627
377,0.698905316297737,0.370893372282926,0.302463908993509,0.238394294443725,0.178700550953036
378,0.695666114139605,0.366826479953823,0.301256260852271,0.241521093044184,0.175637575348602
379,0.687856987615523,0.360577663139819,0.297325298809459,0.243399682728847,0.172349662289973
380,0.67640412113478,0.352950583690933,0.291436203806258,0.242236295128957,0.170582763951863
381,0.664051048911015,0.345867804156283,0.284496777116793,0.238589245166763,0.170078795804254
382,0.654085750206206,0.341532851183072,0.277402393170029,0.233768575513269,0.169831251310974
383,0.64959822807214,0.341941655221243,0.271065172117157,0.22894746774932,0.168912271883251
384,0.650574663869253,0.346888561935782,0.266872837388768,0.225169889252682,0.167785682205816
385,0.654568436008855,0.35444499839117,0.266412553769539,0.22347995984889,0.167481037318571
386,0.659085006180109,0.362540526306849,0.271068782852044,0.224970871281726,0.168311822410151
387,0.663225742065655,0.369614824113598,0.28062850897258,0.229920019293896,0.170235107632693
388,0.668610144355806,0.375087836354283,0.291786860732968,0.236493140043585,0.17326835860718
389,0.676619981468934,0.37838800799831,0.300559529629006,0.24199535971539,0.177248570705455
390,0.68787918400151,0.379226078856689,0.303771411983477,0.244268833163371,0.181671338248686
391,0.700789235696568,0.378936678655026,0.303338920117009,0.244865330132622,0.186205391764703
392,0.71299343493106,0.37923583680178,0.302674918979108,0.246232703179149,0.190682605663143
393,0.722149775501882,0.381619814158089,0.304815580356397,0.250138691639008,0.194942354131761
394,0.731164216386414,0.387527441409194,0.311338771661556,0.257172702375547,0.199262203588706
395,0.747342549585204,0.398507746284859,0.322818322032232,0.26726395478284,0.204231313787158
396,0.778042633842706,0.416148218713461,0.339752003100151,0.280204938221302,0.210355560514405
397,0.82588269906153,0.440700333600146,0.361566915621376,0.295638959131242,0.218082753584945
398,0.884002875352191,0.469679605884461,0.38567229616431,0.312997948974823,0.227761624431605
399,0.944327275650448,0.500181287212808,0.409241528905198,0.33156396075902,0.239711257032583
400,0.999517005299031,0.529512105265803,0.42981208121048,0.350401088762573,0.254121711663432
401,1.04674313731857,0.556024609999405,0.446752816296667,0.367968659590603,0.26931078212034
402,1.08472138946295,0.578277524121101,0.459927140352784,0.382422245681556,0.282291769509694
403,1.11224478630667,0.59477128470832,0.469179419469949,0.391889146906452,0.28971751596939
404,1.12979759250062,0.605405245311656,0.475262709892181,0.396404050964261,0.291531945512098
405,1.139345078491,0.611258818026462,0.479582011864407,0.397691817748451,0.290675464103157
406,1.14290068718344,0.613305610193241,0.483348817121984,0.39749458184224,0.289967400544665
407,1.14334949372481,0.612861428110665,0.487460530154643,0.397244035155829,0.291057645394184
408,1.14546266261897,0.612166496305626,0.492302068846845,0.397630813926055,0.293601768198807
409,1.15425985927737,0.613503165557495,0.49801022270794,0.399072260544242,0.296928545634011
410,1.17340466716205,0.618531130125439,0.504438827289028,0.401815070293465,0.300413262821127
411,1.19782537980717,0.625875846898129,0.510913119063078,0.405761088899501,0.303998606699317
412,1.21889374720517,0.633069643372601,0.5165821409027,0.410567767125201,0.307712305312977
413,1.22815966345655,0.637706885839968,0.520549060212983,0.415711882064419,0.311366028305808
414,1.22577544210061,0.639402624734968,0.522700503529947,0.420830471448358,0.314476572109734
415,1.21996629905999,0.639715078714411,0.523680583442281,0.425730832442041,0.316352371336648
416,1.2189657804471,0.640286944643576,0.524125254200609,0.430095467228089,0.316208274653903
417,1.22680578150009,0.64206789983433,0.524491572193939,0.433477348725028,0.313864997831257
418,1.23805132496861,0.644246525384034,0.524572253716376,0.435250394582813,0.310705144981495
419,1.24580066223327,0.645661501385131,0.523740094178559,0.43461595370742,0.308251738979614
420,1.2441440483711,0.645282084513737,0.521294360817335,0.430899914821472,0.30772272873545
421,1.23449523767066,0.64333716441057,0.517694661638959,0.425431225914286,0.308362569800501
422,1.22120085228689,0.640551022393821,0.513866002296352,0.420390002570283,0.308300802997043
423,1.20829915484799,0.637546281577455,0.510511667442163,0.417832420895094,0.305593751318224
424,1.19725898917743,0.634448973407575,0.507755607589989,0.417647998732455,0.300704820547223
425,1.18704947765341,0.630947400533592,0.505248311281747,0.417414096164271,0.29593572732257
426,1.17651637261437,0.62672672530602,0.502542481734813,0.414472982876611,0.292570014527399
427,1.16543130438116,0.62187247099217,0.499429733689773,0.407773958635104,0.291073658351565
428,1.15615538396984,0.617526221142396,0.496476590821561,0.400599709661354,0.291554564733321
429,1.15147264152892,0.614969357709236,0.49430477253669,0.396793045402566,0.293793770360041
430,1.15381442477799,0.615365726287015,0.493427383708522,0.399569999943416,0.296869494572934
431,1.16303430553412,0.61898116836914,0.494371091293243,0.407886292203967,0.300212272394079
432,1.17778907767902,0.625614127950152,0.497710194968683,0.418391709695412,0.303718942827342
433,1.19670003467072,0.634967313794207,0.503963632653371,0.427380736225987,0.307265996968616
434,1.21824307926094,0.646343869851951,0.512763532528372,0.433531567063598,0.31082923992948
435,1.24072681844564,0.658625025213131,0.522747938684046,0.438394070955438,0.314560526074322
436,1.26242786043423,0.670659779805652,0.53249339497102,0.443424525035765,0.318565066306046
437,1.28199145696243,0.681641910801065,0.541058020226432,0.449424137780761,0.322864718564384
438,1.2992141860688,0.691711522573966,0.548908627120156,0.45612270321124,0.327324223871626
439,1.3141074623552,0.701055661826114,0.556741493512266,0.463099951101413,0.331727921612258
440,1.32683933338686,0.7098089787321,0.565164531536808,0.469916618638394,0.335834981678099
441,1.33895523398301,0.718337270372563,0.574236028904444,0.476293336378418,0.339907661496295
442,1.35265732269336,0.727063403777846,0.583704803561571,0.482026418120953,0.344481284461402
443,1.37006515934946,0.736259514031205,0.593273178917242,0.486893776946676,0.350078555562678
444,1.39142199549032,0.746002876918355,0.602570792593026,0.491173219799291,0.356680158317198
445,1.4144905903555,0.756227147088837,0.611138283493588,0.495738776020742,0.363475381141173
446,1.43677376587254,0.766822426925824,0.618471560547947,0.501400351324463,0.369506428916983
447,1.45619145871929,0.77749293736659,0.624278727168172,0.508567275447607,0.374105681504012
448,1.47237521073268,0.787403453002052,0.629079802785542,0.516389338846972,0.377492994173993
449,1.48533158411124,0.795552971732226,0.633547316387235,0.523660140824128,0.379854622258053
450,1.49511112561421,0.801014860889902,0.638230005620681,0.529146416687134,0.381197802889863
451,1.50242354782207,0.804316623633714,0.642762191672672,0.53260333923596,0.381930373203066
452,1.50836768262846,0.806846774270497,0.646245971474269,0.534410720829837,0.38270795408637
453,1.51401815536549,0.809954044741033,0.647773175165505,0.534940180779588,0.384022908110157
454,1.51981711593762,0.814056180153111,0.647350143215443,0.534761710073498,0.385870418058228
455,1.52529971236656,0.818238692070494,0.646345235886623,0.534752093325455,0.387724701696929
456,1.52992893080532,0.821470451593426,0.646228300325974,0.535773275487841,0.389024412187189
457,1.53338885572211,0.823059788481801,0.648088748100565,0.538347269806496,0.389448171677958
458,1.53625275606261,0.823686922707754,0.651501611694401,0.541731777036097,0.389679810311165
459,1.53931145698568,0.824343943040116,0.655632221239709,0.544847701890037,0.390602564679173
460,1.54324845370291,0.825909431062804,0.659640639306355,0.546641903603865,0.392945552119439
461,1.54747079836645,0.828069471977723,0.662869228081695,0.546816273664202,0.396145176550667
462,1.55053246894874,0.829668897958631,0.6647447074884,0.545562882050102,0.398754721230003
463,1.55098187536322,0.829478266973397,0.664628722732624,0.543047016742913,0.399263280505204
464,1.5483643481262,0.827200552195799,0.662384662504253,0.539743120591979,0.397185383807067
465,1.54389655709538,0.824154293118124,0.658808604177069,0.536652451887859,0.393804811832628
466,1.53894862111282,0.821782043018736,0.654790694923955,0.534777693205824,0.390534688547754
467,1.53470908872459,0.821124942512246,0.65114877232297,0.534844475633832,0.388467068258581
468,1.5315471983758,0.821567864531926,0.648417877202063,0.536496177669044,0.38743980904976
469,1.52959035299321,0.822003551445805,0.647042431921321,0.539053554874249,0.386944826029304
470,1.52896482652744,0.821398217640751,0.647403918509664,0.541804590843091,0.386513218583858
471,1.52983760718508,0.820077954035459,0.649185184727759,0.544238561571627,0.386231711486336
472,1.53239440066907,0.819378434998907,0.651538256188142,0.546031969662628,0.386557886889472
473,1.53679543973722,0.82060036445537,0.653598271316675,0.546882701319542,0.38789028613952
474,1.54280225271942,0.824164270217298,0.654972843392331,0.546985928769204,0.390340175201302
475,1.54943566247967,0.828795357798952,0.656190487839302,0.547435064473279,0.393477885563011
476,1.55563213113393,0.83293635584851,0.657885434144913,0.54938395386461,0.396756518320295
477,1.5604293132119,0.835206339404894,0.660509888581245,0.553633545364522,0.399573418338138
478,1.56342662310352,0.835588105320809,0.663423816157983,0.558650953972678,0.401352858465903
479,1.56440570973848,0.834542552665126,0.665543210797929,0.561839225850207,0.401509099453472
480,1.5631445189907,0.832486692269358,0.66576338760898,0.560454468457898,0.399468155808583
481,1.55943440354178,0.8296228617812,0.663792092798709,0.554583136543511,0.395636446656907
482,1.55306314067924,0.825992802862465,0.660042156248289,0.546933339164271,0.391288807397619
483,1.54379769646665,0.82163157842709,0.65488700970944,0.54021516249591,0.387687114925191
484,1.53230321315664,0.816803662009766,0.648923451928891,0.535983253151363,0.385506116253198
485,1.52129450462101,0.812288703448525,0.643344196518831,0.533480402092751,0.384163634346838
486,1.51375951803238,0.808925322106858,0.639382098802871,0.531634772275273,0.38288155068202
487,1.51214109377724,0.807436042617104,0.638034587859866,0.529612024849305,0.381058109334521
488,1.51546610292645,0.807851536378778,0.63913916024643,0.528133629933754,0.379345882579329
489,1.52140240339747,0.809923137096672,0.642074036062481,0.528476248355027,0.378870286247935
490,1.52765191511068,0.81338153762983,0.646188432596183,0.53179659408897,0.380651892263814
491,1.53310912268876,0.817747551888894,0.650767880307905,0.537572842170459,0.384472349393013
492,1.53787355846682,0.822318495755286,0.655009101967789,0.543466344716709,0.388895429941847
493,1.54207139027088,0.826361056088283,0.65805801306729,0.546868650903311,0.392437926677062
494,1.54550644758287,0.829197062445835,0.659417661304531,0.546249580194441,0.394108254781512
495,1.54718199884263,0.830297631137917,0.65949142575282,0.543263175077735,0.394197882104578
496,1.54596434449389,0.829147633344307,0.658709478723811,0.540082247061666,0.393180953513533
497,1.54091303997573,0.825425743177664,0.657330602838883,0.53851581301175,0.391500554603622
498,1.53267738263042,0.820060533603382,0.655148647369259,0.537973270373538,0.389436606066055
499,1.52264573594917,0.814364003632057,0.651753777923006,0.536716187119661,0.387158963160159
500,1.51220278715378,0.809454784098787,0.646695214234276,0.533088333688265,0.384794193685436
501,1.50266294524248,0.805901238488479,0.640394562171386,0.527398242803832,0.38250361473849
502,1.49525635215246,0.803586105200437,0.634348975994165,0.521880165827665,0.380473550090527
503,1.49119646461029,0.802121342169844,0.63007648050212,0.518360564771542,0.378827136167066
504,1.49114931039682,0.801124512084477,0.62859607511653,0.517864227057935,0.377666509038726
505,1.49409514070731,0.8009473536676,0.629401320697836,0.519815647219854,0.377127894580013
506,1.49868561947911,0.802101195962003,0.631632468852904,0.523178581298219,0.377302835462543
507,1.50359034804304,0.804909230392726,0.63438289151382,0.526636557936541,0.378184731496319
508,1.50765031774021,0.808413030336254,0.637064704191956,0.529425273903798,0.379389940728834
509,1.50978590878013,0.810930977250545,0.639300938179185,0.531197854167869,0.380298901063733
510,1.50891886417373,0.810717679170176,0.640714170746136,0.531526728396666,0.380222093406223
511,1.5046482934867,0.807289021604648,0.641136082685366,0.530080088603268,0.378943382968548
512,1.49750421445765,0.801977605614475,0.640708914814737,0.526737445107077,0.376945736743542
513,1.48806354008202,0.796230552455123,0.639595299063264,0.521339803567659,0.374711838333906
514,1.4772563679101,0.791236077220494,0.637920715766144,0.514212698056726,0.372609409797921
515,1.46737188766152,0.78727526895925,0.63568136706438,0.507439555130516,0.370748594798306
516,1.46099567167462,0.784376335696982,0.632835205279753,0.503315159393999,0.369170263961645
517,1.46043844306992,0.782551400711556,0.629420354803459,0.503676804437074,0.367889945342046
518,1.46518941914782,0.782163073717522,0.626302735530754,0.507661567212413,0.367018047549861
519,1.47293701449991,0.783769085689394,0.624834032799215,0.512716396451697,0.366710457313558
520,1.48133917340337,0.787875069580726,0.626295504039049,0.516150365920264,0.367089671737465
521,1.48894439231365,0.794208516375516,0.630811083957969,0.516858274609107,0.368272171275979
522,1.49575696064027,0.801157451185717,0.636689497113494,0.516522427830058,0.370335066888093
523,1.50190080457461,0.806833504621618,0.642076462101126,0.517097621515502,0.373273268791388
524,1.5074720269846,0.809748228318086,0.645559758287868,0.519975491326955,0.376951697611085
525,1.51249831048285,0.810755598772223,0.647747924895077,0.524132789278566,0.380807219377854
526,1.51698398445573,0.811387939432612,0.649795668202912,0.527861769508104,0.384078894143629
527,1.5209489786323,0.813025940369491,0.652761071403548,0.529574669596867,0.385980488819742
528,1.52479125503934,0.815710418826332,0.656575273391514,0.529383495107471,0.386676851015536
529,1.5291969426571,0.818518455559931,0.660317082407122,0.528633851200981,0.38701784276664
530,1.53485929049224,0.82052316829149,0.663030440461992,0.528626764847601,0.387770016141196
531,1.54170601151394,0.821316895419386,0.664194718242964,0.530027634060573,0.389193196756874
532,1.54813154134602,0.821436248656408,0.664115374926412,0.532375694732341,0.390583754715963
