"wavelength","nadir","45","70","-70","-45"
319,0.3139789637444,0.120299565449389,0.180621589189502,0.125076591467231,0.126656133789733
320,0.28222359228184,0.126764485337701,0.100758769077257,0.130319667927026,0.0976565203988319
321,0.278369898591983,0.145237413130816,0.105748930454692,0.141930986592154,0.103175480719286
322,0.290445724026066,0.158610846249753,0.109990052879728,0.154144505644359,0.112254616077619
323,0.310094426264876,0.166060471916595,0.127744291466327,0.166288190981613,0.12263092341895
324,0.333579514805136,0.171715868498302,0.185201555026075,0.178794410636217,0.139135586243505
325,0.360221179318919,0.179466149411214,0.25776839928023,0.191144893610405,0.156538903640642
326,0.390328017643914,0.189904678668069,0.310383055070262,0.201593150060678,0.16408509221604
327,0.42349738625379,0.202194676198984,0.320160372268921,0.208108442272647,0.163190377955674
328,0.455312392374654,0.214798567152377,0.297091800594423,0.210042599134877,0.17365827428626
329,0.479609077534268,0.224697556775591,0.260368826068289,0.207425626603652,0.188623021840245
330,0.49080268077986,0.227496117752792,0.227337098161135,0.201599909765909,0.182402799411397
331,0.49131514490049,0.225128020315062,0.206782086991109,0.198354928200368,0.162569268738073
332,0.488278263914603,0.224161858749599,0.200831413212848,0.201786677918652,0.160519355308578
333,0.487441080689545,0.229849433395507,0.209035244904285,0.211052505967781,0.176178271650236
334,0.491989229269111,0.243438125772363,0.22995363611655,0.226461696960819,0.187200854577746
335,0.501747570401551,0.260631321392405,0.258606349150814,0.248036009619175,0.192109982142402
336,0.515352525965338,0.275716032562903,0.285816223826257,0.269696090070417,0.196443350550137
337,0.53070755965473,0.28404223793809,0.302965723383108,0.283084858817603,0.201875037067378
338,0.546245697040964,0.287415085805671,0.311442271336031,0.288472748817585,0.207692916720819
339,0.560255612941988,0.28855746998432,0.31411162044102,0.288609021506267,0.212753774329005
340,0.570682979816848,0.288785155954396,0.311621213358112,0.285115893633135,0.216283121598495
341,0.57779080032523,0.288729438900431,0.305952103864132,0.28121265014163,0.219859621594576
342,0.583227967408241,0.289265666788014,0.300959450546494,0.280284970134789,0.224835905714423
343,0.587804496526491,0.291058261051256,0.299633816380358,0.282987429293748,0.229941776820402
344,0.591457922620916,0.294080550453054,0.301840748445767,0.288273124552828,0.23408274049531
345,0.593637204484669,0.29788222844505,0.303999254185214,0.294698149566186,0.237427837958147
346,0.593650666690046,0.302051564618531,0.302410932407064,0.300044695326032,0.23812102482392
347,0.591351264050691,0.306593801179821,0.295213575149555,0.301723175024171,0.234168677203191
348,0.589669514260408,0.311973210165371,0.287526517400646,0.301367227910019,0.22974475538543
349,0.592028817053287,0.317989488429018,0.285093086472272,0.301525000726158,0.229590782944103
350,0.601149893887434,0.323944644831818,0.292286913895641,0.304097496426948,0.235937403398282
351,0.615932758593439,0.329591258457905,0.308536379006241,0.309428429111973,0.247542229995648
352,0.632420896941318,0.334539814526076,0.328676746657395,0.316415705112057,0.260156072053846
353,0.646199188076222,0.33746570310728,0.345524091484318,0.322904157903359,0.267438113478904
354,0.654547831487959,0.337703641118803,0.353727607022759,0.326967380170678,0.266155161447941
355,0.657900106254234,0.336369246874117,0.352931776086869,0.328256021099132,0.259920106136504
356,0.656595566856946,0.334146964165471,0.343073520730908,0.326560081075947,0.252008070805857
357,0.651508416027676,0.331534729142359,0.325009883944726,0.322350707811708,0.244421810463958
358,0.646889968623666,0.331110224154477,0.306399592766264,0.319023742321069,0.239626444713306
359,0.647653672362522,0.335950596303448,0.296996176350996,0.319838495687367,0.240222701586317
360,0.657684195161075,0.348335133870312,0.305515754838671,0.326949632677412,0.247629554298126
361,0.676099174687341,0.366087863900194,0.32928988064971,0.33937457020531,0.260138866883809
362,0.69893092159798,0.383849578567636,0.357576057408642,0.353442296094384,0.274275787298847
363,0.72220102677874,0.395984263140867,0.379608044257949,0.364405280008998,0.286578828528112
364,0.743285515037157,0.400439289785312,0.390173160285284,0.370204733477368,0.295718046654719
365,0.761935451841243,0.40169456093932,0.393852741629968,0.374196380978687,0.30333802986324
366,0.777980331922901,0.404744098064138,0.396190906912828,0.379579976283633,0.310736514952012
367,0.791069398329009,0.413124736716732,0.401432014060521,0.387962005607564,0.319960282263218
368,0.80030775637605,0.42378018794721,0.407369036562155,0.396788167509211,0.331099485733273
369,0.80451618688291,0.431362846087411,0.409527751548362,0.402134475557072,0.339406960810186
370,0.802601571243176,0.430710356025227,0.403481983850746,0.399969057252711,0.337062157511474
371,0.796924421307458,0.42323105441927,0.390121170657699,0.391507181650262,0.324173958687268
372,0.792327322703304,0.414970611454261,0.37458816075705,0.382044129030301,0.307652171440037
373,0.793458208063121,0.411368317627974,0.362257981107955,0.376655352232197,0.29246203571381
374,0.801591556611419,0.41451645001294,0.356699258045875,0.377593946969886,0.280389813866208
375,0.811609387601094,0.42095239130613,0.357597633162273,0.382062394279462,0.272546266210546
376,0.817218224869122,0.426281541829466,0.363514159292366,0.386421013922959,0.270334894569807
377,0.813352887044929,0.426755879810461,0.372958078574485,0.388091048178816,0.274521126266159
378,0.802737948884933,0.42347534777174,0.383560064765076,0.387803786565237,0.282763722725938
379,0.79033080531277,0.418656103932048,0.391655274736862,0.385567664728381,0.291181156186244
380,0.780551446475563,0.41385297097069,0.392681412167793,0.379678340276046,0.295244465657606
381,0.774967496942641,0.40942926345895,0.386400827817712,0.370771801108755,0.293990735327055
382,0.772903552942798,0.405030668674057,0.376226918183095,0.362045031815054,0.289302894769925
383,0.773232400432917,0.400031811487403,0.365034838579519,0.355952382056556,0.282739641153198
384,0.775338979610409,0.394720092015783,0.35521790379135,0.353262833574936,0.276136655152948
385,0.780259464675374,0.39165844591769,0.349414616152459,0.353768953432119,0.271714395645006
386,0.789227482314304,0.393556920552737,0.350172680907702,0.357325470482224,0.270767701849056
387,0.802730124423365,0.402068106193652,0.358626556903426,0.364118330326747,0.273077562026921
388,0.817783180760762,0.413754822154229,0.370685748933431,0.37327225535924,0.276186395280594
389,0.830260441385947,0.423305056160651,0.380635472351275,0.382193331647922,0.27730348788355
390,0.836342830556848,0.425601283199616,0.383131822281686,0.38733505662934,0.274863609148252
391,0.838314515478857,0.42228742599619,0.379293584386834,0.389234096722619,0.272976538399172
392,0.843439659040251,0.42040742061938,0.375432339490434,0.39177645045224,0.275923947643084
393,0.859137418686074,0.426719345822961,0.377832503688429,0.397822759730498,0.282962726285381
394,0.890212709604989,0.444443211783263,0.390195954303229,0.408371756037806,0.294090124100087
395,0.935085916552244,0.46952062235338,0.410126612742126,0.422700934419308,0.312052230072681
396,0.99048190704021,0.496420605290028,0.433531002831003,0.439998505069742,0.336005249236626
397,1.05255454815962,0.520257497691448,0.456873706934196,0.45961457430947,0.360824709928074
398,1.11605195310306,0.54166804189679,0.479878007080287,0.481887050352201,0.383818339336017
399,1.17463189651972,0.562890419544111,0.502165310334917,0.507018432330198,0.404246002608337
400,1.22152850085273,0.58556728306552,0.521799141938981,0.534626537552725,0.421098095292344
401,1.25599976146986,0.609108729350308,0.538272600375108,0.562627438498838,0.434208083404638
402,1.28278127075013,0.630931060247929,0.55323534106512,0.587480970164243,0.444492135778562
403,1.30636149343909,0.648025948110593,0.56838655123566,0.605348435015065,0.45270686199321
404,1.32890601193173,0.658738689782739,0.58435144945903,0.614576132379364,0.459309555803519
405,1.34842516005638,0.66466483445903,0.599540707947036,0.618744462879231,0.464681496602347
406,1.36245629824219,0.667551679647592,0.611788781536572,0.622047385276946,0.469271376187921
407,1.36931666588612,0.66889454470826,0.619127035542446,0.627916205968788,0.473529036820216
408,1.37230005666029,0.670664119826345,0.62252756931291,0.635812188449425,0.477645149061582
409,1.37653737638235,0.674979607778271,0.624158423968633,0.643646782241763,0.481522007928296
410,1.38685428467949,0.683642448458456,0.626057205419029,0.649287333373219,0.484957117236576
411,1.40330456810413,0.695511562592881,0.628887747392375,0.652416359614682,0.488145115572249
412,1.42147799311835,0.70662811114013,0.632027567709762,0.654453666540474,0.49147791229157
413,1.43680356954736,0.712711075859934,0.634753357668607,0.656771772955406,0.495023677874128
414,1.44596401714249,0.711679346392193,0.636744569204344,0.660017471687034,0.49843472789899
415,1.448611772969,0.706956751467487,0.638474993775263,0.663301265320308,0.500769844428331
416,1.44479049183792,0.702619641795465,0.640388315831859,0.665468889831045,0.500815649666988
417,1.43500692078765,0.701935835074531,0.642811215025932,0.665480722570242,0.497527482706916
418,1.42212811461278,0.704056719511451,0.645771890017125,0.663506801129551,0.492336062570494
419,1.40959523233081,0.706485938009858,0.648887257571908,0.660202094173697,0.487618506649267
420,1.40036912663336,0.706704191942489,0.65136289089039,0.656174824714632,0.485485819065686
421,1.39525315410546,0.703972353298121,0.652140346175722,0.651662883179239,0.486129861263745
422,1.39285280808311,0.699412795438659,0.650161145272203,0.646463381471391,0.487743565943909
423,1.39129613286778,0.694181518400271,0.644341560804798,0.640248066624031,0.488162083909516
424,1.38867497584664,0.689179281162078,0.634245706534277,0.633072888173258,0.485877750638162
425,1.38396505049135,0.684521763200919,0.62149541958358,0.625997745348096,0.481600741667758
426,1.37634023414776,0.679987262620093,0.60809001716712,0.620075297369286,0.476371608814762
427,1.36534278049205,0.675300073808,0.596090972244434,0.616133607238014,0.471086265449366
428,1.35388452892906,0.671097653390182,0.587823132585389,0.614488886151937,0.466596876161617
429,1.34639979260731,0.668390326472319,0.585714819206583,0.615165098986825,0.463775815009497
430,1.34717881401265,0.667998892712446,0.592075982919691,0.618003664901204,0.463475980578092
431,1.35707402908153,0.670512150638859,0.605922676313917,0.622889689324319,0.466132491615666
432,1.37310121398111,0.67638518280203,0.622538035773757,0.629824762036071,0.471654488237773
433,1.39203878090191,0.686010453539371,0.636972946225451,0.638703316440056,0.479822315045165
434,1.41150472121733,0.699079992880356,0.646047086499832,0.649137352507207,0.490035084972523
435,1.43162961515411,0.713404425756836,0.6515239377731,0.66009144255002,0.500732297257073
436,1.45299570630971,0.7263993406353,0.655893474746591,0.67031392380499,0.510136093122784
437,1.47607042129215,0.735753833383424,0.661328083310397,0.678577059113442,0.516665986370255
438,1.50030479852232,0.741981894640203,0.668116016240741,0.685060772225354,0.520719661152658
439,1.52458941906323,0.746991192513123,0.675497429708075,0.690670287823336,0.523584304171596
440,1.54783156805462,0.752618993996071,0.682546852181226,0.69628389445175,0.526414581882973
441,1.57006923926186,0.759700088560885,0.688957737830348,0.702466513581089,0.52989012961604
442,1.59251267338128,0.767898139393609,0.695115220641953,0.709387810844127,0.534169725662329
443,1.61619603889774,0.776816649478344,0.701166573115747,0.717125161946207,0.539325097031432
444,1.64124685144761,0.786192468990456,0.70731547724976,0.725702350457549,0.545343062686431
445,1.6650244145535,0.796102534334987,0.714652708593283,0.735166339097633,0.552061021193934
446,1.68405329776808,0.806628552625904,0.724437343704232,0.745572972158719,0.559227251881978
447,1.69505152364231,0.817707075114142,0.737487902509577,0.756842803222869,0.566531970337463
448,1.69935154420826,0.828351955295493,0.751496857643802,0.767793063512664,0.573289520198653
449,1.70081525471069,0.837059080141169,0.762462058011541,0.776645601015611,0.578436044553999
450,1.70306151673142,0.842323314632987,0.766378536216358,0.781645439976466,0.580731287162652
451,1.70756282917232,0.844078861073372,0.762978640081551,0.782598449825357,0.580141582114775
452,1.71316848624313,0.844145349390363,0.757143678613417,0.781423425597948,0.578262492151112
453,1.71856452574728,0.844358674829913,0.754129350345501,0.780178505933638,0.576575372262859
454,1.72284836634491,0.845925077478101,0.757489682535441,0.780500522366705,0.576159827259055
455,1.72669594068008,0.847957230709183,0.764701372418444,0.782502430865564,0.57736284085926
456,1.73114343735488,0.849001567774983,0.771872222542885,0.785928373930196,0.580335213529093
457,1.7371058871872,0.84768313061779,0.775441879848254,0.79042986830947,0.584978502127093
458,1.74413631559867,0.844906217743276,0.775413634383426,0.79496476917183,0.589989810972965
459,1.75091833753406,0.84297129097024,0.773874560207305,0.798049403600709,0.593370697291486
460,1.75608697160887,0.844084800145618,0.772849494520456,0.798180013599936,0.593090150434583
461,1.75856419222023,0.848450297723699,0.773119818013262,0.795160715388577,0.588994306454993
462,1.75765129048777,0.853348820171644,0.773536030002701,0.790763520566842,0.58379439051863
463,1.75260707495049,0.855804151852652,0.772662160331951,0.786880816872708,0.580385745210003
464,1.74311415417923,0.85371596018856,0.769516485893627,0.78486823991714,0.580788725075393
465,1.73031239472349,0.848588756914646,0.765034138386921,0.784029820348589,0.583663424312808
466,1.71537080105594,0.842781917113583,0.760424120116246,0.783116671260937,0.586795393005566
467,1.69938127458456,0.83850277114776,0.75657464650328,0.780945710302151,0.588044314314423
468,1.68505012054908,0.836229483616911,0.753681007986414,0.777721460515292,0.586821049948133
469,1.67581212452216,0.83514181553547,0.751548061991267,0.77455592514557,0.583583715631076
470,1.67437155448877,0.834204255319393,0.749858647000985,0.772508859589654,0.578791993685407
471,1.68084856110481,0.83316725442507,0.748759022946788,0.772306635018908,0.573520684932394
472,1.69180578968622,0.833294830723664,0.749397747693408,0.774148971348196,0.569847566521923
473,1.70338176180755,0.835968297874881,0.753025401025745,0.778138103786297,0.569856059563101
474,1.71211758030776,0.841839123216054,0.760245649252767,0.784056648822466,0.57476672965589
475,1.71781023447994,0.848655626378245,0.768819191529725,0.79040966604493,0.581957049597392
476,1.72127325985899,0.853335359514481,0.775689001602292,0.795285242141614,0.587605618340728
477,1.72326261160139,0.85303879146107,0.777958890376021,0.796827327521317,0.58803323773317
478,1.72366100983209,0.84827898219437,0.775210263605519,0.794863007826582,0.583490328843814
479,1.72169670672564,0.841999774563978,0.768852373673622,0.790463321735013,0.577165556175731
480,1.71655483120694,0.837053225343357,0.760284199687944,0.784652195263329,0.572194991803477
481,1.70811414606786,0.834710707984422,0.751031774879757,0.77832649994497,0.570083442471109
482,1.69763314067311,0.833427961444865,0.742894574472965,0.772197582527822,0.569300428739335
483,1.68653387076933,0.831331145272065,0.737663462664872,0.766890825920112,0.567836282038686
484,1.67622415282967,0.826896442240695,0.736512708438945,0.762889928800236,0.564015075668155
485,1.66800901397437,0.820714327057749,0.737606785442648,0.760281602646949,0.558590572678642
486,1.66316004187632,0.814059292795625,0.73809664586753,0.759002389611736,0.553073036401358
487,1.66288398400557,0.808211443534273,0.735309560872242,0.758930127124617,0.548809813519747
488,1.66711258332304,0.804461503049178,0.730082463080792,0.759856954940467,0.546454329648359
489,1.67464914132552,0.804020007496695,0.726077291851342,0.761473750228212,0.546150388355867
490,1.68422092690885,0.807976644347326,0.726875727274174,0.763391784707207,0.548011175764342
491,1.69436894962621,0.816071288133324,0.733669160178756,0.765198492634997,0.551790661887049
492,1.70314171410944,0.825196122591537,0.742417460583407,0.766444855760953,0.556474106728124
493,1.70839162635264,0.831763216044959,0.748046084078372,0.766568595643911,0.560879596291911
494,1.70824382737668,0.832721541275767,0.746308808147616,0.765089234735622,0.563880836156427
495,1.70314948845176,0.828572594446433,0.739391191110496,0.762436303417054,0.564967413257596
496,1.69442175554375,0.820946597336461,0.731728451599491,0.759301257074545,0.563811296245868
497,1.68333475463839,0.811314388561424,0.727259071156226,0.756200165775898,0.560062351671963
498,1.67137636076899,0.801481549942576,0.726623734155249,0.753243849597914,0.554314844355831
499,1.66024796699912,0.793413399613903,0.727587709144863,0.750258143642446,0.548055138585847
500,1.65160606021251,0.788668534594234,0.72774883653283,0.747035168485011,0.542737610562462
501,1.64634130545854,0.787856234175141,0.725587492948288,0.743602826181522,0.539370276584938
502,1.64358116646951,0.789980541614809,0.722005980379309,0.740623330038196,0.537975919212371
503,1.64216631690549,0.793733435321075,0.718288457669818,0.738815995328244,0.53836848175042
504,1.64110630826908,0.797636554372688,0.715554667590871,0.738691439486047,0.540226286920263
505,1.64078004128384,0.800730666391335,0.713828783519903,0.739547542397195,0.542861593935365
506,1.64211620156553,0.802361899319646,0.712677257512855,0.740146598486072,0.545458709613365
507,1.64592067787671,0.801929887867078,0.711670169405075,0.739229953978729,0.547221865321769
508,1.65116591407566,0.799818916675254,0.710769117034504,0.736783374480594,0.547873612101189
509,1.65491974959605,0.797385190150998,0.710350650262282,0.734160165371569,0.547613479530426
510,1.65415455826778,0.79591237609928,0.710803754880539,0.732775072383238,0.546561758238928
511,1.64744865374529,0.795958869964383,0.712099964967599,0.733259376275091,0.544733637729507
512,1.63776635460208,0.796307485281165,0.713059033291317,0.734124069435329,0.541930270995781
513,1.62878635680856,0.795424622385959,0.712282051341923,0.733500590769013,0.537841238586007
514,1.62375556591092,0.791982295788301,0.708640035284585,0.729820155688765,0.532247509352714
515,1.62268118012861,0.786815632072197,0.703337779015497,0.724042048980117,0.526284563311613
516,1.6240303220937,0.781815275147196,0.698679096649304,0.71831207798727,0.521658250545777
517,1.6262612966611,0.778859765872278,0.696922553019709,0.714736700121957,0.519900060548
518,1.6289279779895,0.778742179890509,0.698470640787692,0.714121827663801,0.521210167094397
519,1.63290710327518,0.780925941046575,0.701444225193964,0.715667937407891,0.524267542321592
520,1.63913758333757,0.78476387578118,0.703741882554386,0.718405119702203,0.52758185332626
521,1.64800892254148,0.78963647128819,0.704027048242637,0.72154342767552,0.530039939502694
522,1.6582429670311,0.794940626336367,0.70343218892021,0.724874861202511,0.531962893565381
523,1.66823099029401,0.79997828602523,0.703509103275115,0.728201176309975,0.533944101184057
524,1.67651934124165,0.804036086639932,0.705539203699086,0.731296142983788,0.536465301756932
525,1.68318980187554,0.807114882141357,0.70911635401334,0.7341861549508,0.539342918697662
526,1.68913901154193,0.809602249512444,0.712951006459617,0.736878449374566,0.542036349706832
527,1.69524258886265,0.811838752446676,0.715731380086656,0.739149769623721,0.543986495392926
528,1.70167846313936,0.814229548460702,0.717107089959662,0.741017534094705,0.545152751724524
529,1.7076993598209,0.817307884314225,0.718041077213067,0.742951294248921,0.546197497590964
530,1.71248613699815,0.821583899457922,0.719566443035056,0.745341182639182,0.547814869033576
531,1.71554046747014,0.827031932194837,0.7222507178913,0.748187470642529,0.550327142148197
532,1.7175189310795,0.831850263487108,0.725075594402725,0.750695611621042,0.552742949135027
533,1.71932891697218,0.833845483244756,0.726658522647474,0.751941468551514,0.553724462743078
